        20,      1167,
      20.1,      1125,
      20.2,      1169,
      20.3,      1201,
      20.4,      1127,
      20.5,      1200,
      20.6,      1147,
      20.7,      1172,
      20.8,      1144,
      20.9,      1091,
        21,      1171,
      21.1,      1104,
      21.2,      1058,
      21.3,      1130,
      21.4,      1115,
      21.5,      1059,
      21.6,      1094,
      21.7,      1081,
      21.8,      1118,
      21.9,      1072,
        22,      1066,
      22.1,      1092,
      22.2,      1065,
      22.3,      1054,
      22.4,      1054,
      22.5,      1041,
      22.6,       980,
      22.7,      1029,
      22.8,      1031,
      22.9,       950,
        23,       999,
      23.1,       982,
      23.2,       985,
      23.3,       949,
      23.4,       950,
      23.5,       900,
      23.6,       865,
      23.7,       933,
      23.8,       909,
      23.9,       931,
        24,       923,
      24.1,       955,
      24.2,       973,
      24.3,      1191,
      24.4,      1196,
      24.5,       908,
      24.6,       897,
      24.7,       856,
      24.8,       819,
      24.9,       822,
        25,       804,
      25.1,       862,
      25.2,       860,
      25.3,       806,
      25.4,       824,
      25.5,       812,
      25.6,       825,
      25.7,       798,
      25.8,       776,
      25.9,       748,
        26,       782,
      26.1,       761,
      26.2,       707,
      26.3,       736,
      26.4,       758,
      26.5,       766,
      26.6,       769,
      26.7,       731,
      26.8,       717,
      26.9,       736,
        27,       738,
      27.1,       672,
      27.2,       688,
      27.3,       737,
      27.4,       712,
      27.5,       690,
      27.6,       687,
      27.7,       691,
      27.8,       707,
      27.9,       714,
        28,       686,
      28.1,       686,
      28.2,       743,
      28.3,       735,
      28.4,       682,
      28.5,       736,
      28.6,       650,
      28.7,       666,
      28.8,       644,
      28.9,       619,
        29,       687,
      29.1,       625,
      29.2,       679,
      29.3,       657,
      29.4,       611,
      29.5,       658,
      29.6,       645,
      29.7,       656,
      29.8,       626,
      29.9,       605,
        30,       610,
      30.1,       672,
      30.2,       643,
      30.3,       697,
      30.4,       659,
      30.5,       656,
      30.6,       681,
      30.7,       708,
      30.8,       727,
      30.9,       929,
        31,      1364,
      31.1,      1936,
      31.2,      2723,
      31.3,      3628,
      31.4,      4078,
      31.5,      3434,
      31.6,      2342,
      31.7,      1232,
      31.8,       836,
      31.9,       717,
        32,       625,
      32.1,       640,
      32.2,       622,
      32.3,       652,
      32.4,       649,
      32.5,       618,
      32.6,       632,
      32.7,       628,
      32.8,       590,
      32.9,       623,
        33,       641,
      33.1,       619,
      33.2,       620,
      33.3,       600,
      33.4,       596,
      33.5,       615,
      33.6,       604,
      33.7,       625,
      33.8,       616,
      33.9,       633,
        34,       596,
      34.1,       551,
      34.2,       593,
      34.3,       613,
      34.4,       576,
      34.5,       577,
      34.6,       557,
      34.7,       624,
      34.8,       600,
      34.9,       624,
        35,       603,
      35.1,       590,
      35.2,       565,
      35.3,       611,
      35.4,       603,
      35.5,       601,
      35.6,       612,
      35.7,       599,
      35.8,       594,
      35.9,       559,
        36,       593,
      36.1,       615,
      36.2,       563,
      36.3,       587,
      36.4,       566,
      36.5,       596,
      36.6,       567,
      36.7,       585,
      36.8,       608,
      36.9,       594,
        37,       574,
      37.1,       574,
      37.2,       576,
      37.3,       618,
      37.4,       645,
      37.5,       669,
      37.6,       762,
      37.7,       684,
      37.8,       624,
      37.9,       594,
        38,       622,
      38.1,       547,
      38.2,       589,
      38.3,       574,
      38.4,       589,
      38.5,       614,
      38.6,       590,
      38.7,       565,
      38.8,       571,
      38.9,       588,
        39,       540,
      39.1,       590,
      39.2,       613,
      39.3,       584,
      39.4,       602,
      39.5,       575,
      39.6,       577,
      39.7,       576,
      39.8,       603,
      39.9,       602,
        40,       597,
      40.1,       614,
      40.2,       570,
      40.3,       592,
      40.4,       577,
      40.5,       598,
      40.6,       618,
      40.7,       587,
      40.8,       599,
      40.9,       560,
        41,       588,
      41.1,       635,
      41.2,       607,
      41.3,       669,
      41.4,       697,
      41.5,       700,
      41.6,       635,
      41.7,       675,
      41.8,       594,
      41.9,       616,
        42,       650,
      42.1,       542,
      42.2,       565,
      42.3,       594,
      42.4,       557,
      42.5,       583,
      42.6,       560,
      42.7,       560,
      42.8,       573,
      42.9,       618,
        43,       559,
      43.1,       591,
      43.2,       545,
      43.3,       605,
      43.4,       607,
      43.5,       599,
      43.6,       547,
      43.7,       555,
      43.8,       601,
      43.9,       584,
        44,       579,
      44.1,       516,
      44.2,       570,
      44.3,       551,
      44.4,       625,
      44.5,       553,
      44.6,       601,
      44.7,       558,
      44.8,       539,
      44.9,       591,
        45,       636,
      45.1,       635,
      45.2,       672,
      45.3,       701,
      45.4,       650,
      45.5,       627,
      45.6,       631,
      45.7,       549,
      45.8,       556,
      45.9,       555,
        46,       517,
      46.1,       586,
      46.2,       597,
      46.3,       587,
      46.4,       560,
      46.5,       551,
      46.6,       549,
      46.7,       565,
      46.8,       543,
      46.9,       594,
        47,       542,
      47.1,       541,
      47.2,       532,
      47.3,       532,
      47.4,       561,
      47.5,       519,
      47.6,       529,
      47.7,       561,
      47.8,       564,
      47.9,       524,
        48,       593,
      48.1,       524,
      48.2,       555,
      48.3,       593,
      48.4,       551,
      48.5,       565,
      48.6,       546,
      48.7,       523,
      48.8,       555,
      48.9,       532,
        49,       552,
      49.1,       526,
      49.2,       576,
      49.3,       523,
      49.4,       586,
      49.5,       560,
      49.6,       598,
      49.7,       544,
      49.8,       544,
      49.9,       613,
        50,       557,
      50.1,       552,
      50.2,       603,
      50.3,       556,
      50.4,       520,
      50.5,       580,
      50.6,       574,
      50.7,       566,
      50.8,       589,
      50.9,       628,
        51,       637,
      51.1,       663,
      51.2,       758,
      51.3,       712,
      51.4,       808,
      51.5,       816,
      51.6,       872,
      51.7,       807,
      51.8,       791,
      51.9,       877,
        52,       765,
      52.1,       690,
      52.2,       643,
      52.3,       565,
      52.4,       543,
      52.5,       536,
      52.6,       510,
      52.7,       526,
      52.8,       567,
      52.9,       544,
        53,       530,
      53.1,       505,
      53.2,       558,
      53.3,       518,
      53.4,       540,
      53.5,       533,
      53.6,       533,
      53.7,       540,
      53.8,       530,
      53.9,       586,
        54,       531,
      54.1,       580,
      54.2,       561,
      54.3,       523,
      54.4,       572,
      54.5,       524,
      54.6,       514,
      54.7,       519,
      54.8,       517,
      54.9,       530,
        55,       556,
      55.1,       577,
      55.2,       532,
      55.3,       555,
      55.4,       555,
      55.5,       534,
      55.6,       552,
      55.7,       539,
      55.8,       579,
      55.9,       540,
        56,       496,
      56.1,       545,
      56.2,       571,
      56.3,       488,
      56.4,       516,
      56.5,       569,
      56.6,       571,
      56.7,       547,
      56.8,       520,
      56.9,       533,
        57,       485,
      57.1,       546,
      57.2,       582,
      57.3,       537,
      57.4,       540,
      57.5,       526,
      57.6,       510,
      57.7,       509,
      57.8,       537,
      57.9,       537,
        58,       516,
      58.1,       557,
      58.2,       532,
      58.3,       538,
      58.4,       512,
      58.5,       549,
      58.6,       543,
      58.7,       557,
      58.8,       538,
      58.9,       495,
        59,       546,
      59.1,       510,
      59.2,       516,
      59.3,       538,
      59.4,       547,
      59.5,       538,
      59.6,       534,
      59.7,       557,
      59.8,       527,
      59.9,       558,
        60,       533,
      60.1,       556,
      60.2,       606,
      60.3,       545,
      60.4,       576,
      60.5,       528,
      60.6,       505,
      60.7,       568,
      60.8,       469,
      60.9,       520,
        61,       543,
      61.1,       495,
      61.2,       530,
      61.3,       516,
      61.4,       510,
      61.5,       557,
      61.6,       528,
      61.7,       532,
      61.8,       525,
      61.9,       513,
        62,       515,
      62.1,       580,
      62.2,       529,
      62.3,       593,
      62.4,       531,
      62.5,       492,
      62.6,       512,
      62.7,       533,
      62.8,       556,
      62.9,       572,
        63,       537,
      63.1,       550,
      63.2,       558,
      63.3,       541,
      63.4,       526,
      63.5,       560,
      63.6,       574,
      63.7,       571,
      63.8,       586,
      63.9,       545,
        64,       603,
      64.1,       558,
      64.2,       587,
      64.3,       552,
      64.4,       528,
      64.5,       551,
      64.6,       575,
      64.7,       516,
      64.8,       536,
      64.9,       551,
        65,       593,
      65.1,       592,
      65.2,       564,
      65.3,       586,
      65.4,       583,
      65.5,       626,
      65.6,       642,
      65.7,       585,
      65.8,       636,
      65.9,       626,
        66,       549,
      66.1,       540,
      66.2,       617,
      66.3,       535,
      66.4,       613,
      66.5,       539,
      66.6,       561,
      66.7,       534,
      66.8,       546,
      66.9,       570,
        67,       527,
      67.1,       520,
      67.2,       555,
      67.3,       528,
      67.4,       512,
      67.5,       562,
      67.6,       575,
      67.7,       570,
      67.8,       602,
      67.9,       583,
        68,       587,
      68.1,       587,
      68.2,       548,
      68.3,       560,
      68.4,       527,
      68.5,       529,
      68.6,       507,
      68.7,       552,
      68.8,       511,
      68.9,       546,
        69,       584,
      69.1,       533,
      69.2,       530,
      69.3,       541,
      69.4,       525,
      69.5,       499,
      69.6,       551,
      69.7,       506,
      69.8,       494,
      69.9,       535,
        70,       535,
      70.1,       594,
      70.2,       521,
      70.3,       548,
      70.4,       513,
      70.5,       503,
      70.6,       528,
      70.7,       521,
      70.8,       482,
      70.9,       524,
        71,       526,
      71.1,       493,
      71.2,       539,
      71.3,       519,
      71.4,       540,
      71.5,       525,
      71.6,       578,
      71.7,       623,
      71.8,       562,
      71.9,       540,
        72,       567,
      72.1,       598,
      72.2,       568,
      72.3,       557,
      72.4,       516,
      72.5,       594,
      72.6,       545,
      72.7,       572,
      72.8,       534,
      72.9,       532,
        73,       557,
      73.1,       542,
      73.2,       534,
      73.3,       542,
      73.4,       561,
      73.5,       577,
      73.6,       501,
      73.7,       507,
      73.8,       559,
      73.9,       513,
        74,       539,
      74.1,       563,
      74.2,       530,
      74.3,       536,
      74.4,       519,
      74.5,       521,
      74.6,       559,
      74.7,       547,
      74.8,       546,
      74.9,       536,
        75,       508,
      75.1,       492,
      75.2,       537,
      75.3,       540,
      75.4,       513,
      75.5,       518,
      75.6,       523,
      75.7,       558,
      75.8,       544,
      75.9,       569,
        76,       550,
      76.1,       528,
      76.2,       510,
      76.3,       524,
      76.4,       562,
      76.5,       542,
      76.6,       527,
      76.7,       512,
      76.8,       557,
      76.9,       557,
        77,       538,
      77.1,       530,
      77.2,       546,
      77.3,       558,
      77.4,       574,
      77.5,       560,
      77.6,       534,
      77.7,       511,
      77.8,       583,
      77.9,       592,
        78,       580,
      78.1,       587,
      78.2,       541,
      78.3,       583,
      78.4,       545,
      78.5,       536,
      78.6,       553,
      78.7,       567,
      78.8,       525,
      78.9,       537,
        79,       566,
      79.1,       499,
      79.2,       538,
      79.3,       561,
      79.4,       571,
      79.5,       531,
      79.6,       537,
      79.7,       598,
      79.8,       556,
      79.9,       564,
        80,       559,
      80.1,       562,
      80.2,       549,
      80.3,       543,
      80.4,       536,
      80.5,       560,
      80.6,       560,
      80.7,       564,
      80.8,       562,
      80.9,       543,
        81,       523,
      81.1,       555,
      81.2,       538,
      81.3,       527,
      81.4,       565,
      81.5,       552,
      81.6,       531,
      81.7,       548,
      81.8,       584,
      81.9,       548,
        82,       535,
      82.1,       583,
      82.2,       577,
      82.3,       564,
      82.4,       550,
      82.5,       506,
      82.6,       552,
      82.7,       565,
      82.8,       522,
      82.9,       553,
        83,       568,
      83.1,       525,
      83.2,       510,
      83.3,       554,
      83.4,       516,
      83.5,       569,
      83.6,       589,
      83.7,       537,
      83.8,       595,
      83.9,       555,
        84,       612,
      84.1,       548,
      84.2,       564,
      84.3,       578,
      84.4,       540,
      84.5,       543,
      84.6,       557,
      84.7,       571,
      84.8,       528,
      84.9,       588,
        85,       558,
      85.1,       552,
      85.2,       564,
      85.3,       602,
      85.4,       592,
      85.5,       529,
      85.6,       577,
      85.7,       575,
      85.8,       559,
      85.9,       527,
        86,       540,
      86.1,       541,
      86.2,       553,
      86.3,       578,
      86.4,       549,
      86.5,       571,
      86.6,       532,
      86.7,       580,
      86.8,       566,
      86.9,       617,
        87,       601,
      87.1,       565,
      87.2,       568,
      87.3,       583,
      87.4,       520,
      87.5,       581,
      87.6,       549,
      87.7,       588,
      87.8,       604,
      87.9,       601,
        88,       572,
      88.1,       591,
      88.2,       571,
      88.3,       581,
      88.4,       577,
      88.5,       549,
      88.6,       604,
      88.7,       579,
      88.8,       593,
      88.9,       569,
        89,       561,
      89.1,       586,
      89.2,       557,
      89.3,       579,
      89.4,       604,
      89.5,       569,
      89.6,       579,
      89.7,       570,
      89.8,       609,
      89.9,       584,
        90,       587,
      90.1,       621,
      90.2,       566,
      90.3,       589,
      90.4,       584,
      90.5,       579,
      90.6,       609,
      90.7,       564,
      90.8,       555,
      90.9,       608,
        91,       529,
      91.1,       528,
      91.2,       594,
      91.3,       559,
      91.4,       623,
      91.5,       593,
      91.6,       572,
      91.7,       538,
      91.8,       519,
      91.9,       599,
        92,       562,
      92.1,       542,
      92.2,       561,
      92.3,       589,
      92.4,       585,
      92.5,       535,
      92.6,       584,
      92.7,       561,
      92.8,       515,
      92.9,       577,
        93,       582,
      93.1,       524,
      93.2,       574,
      93.3,       598,
      93.4,       593,
      93.5,       568,
      93.6,       568,
      93.7,       583,
      93.8,       549,
      93.9,       606,
        94,       533,
      94.1,       595,
      94.2,       544,
      94.3,       565,
      94.4,       581,
      94.5,       567,
      94.6,       581,
      94.7,       538,
      94.8,       573,
      94.9,       539,
        95,       609,
      95.1,       569,
      95.2,       519,
      95.3,       550,
      95.4,       580,
      95.5,       536,
      95.6,       572,
      95.7,       588,
      95.8,       566,
      95.9,       575,
        96,       541,
      96.1,       593,
      96.2,       567,
      96.3,       602,
      96.4,       520,
      96.5,       545,
      96.6,       568,
      96.7,       582,
      96.8,       570,
      96.9,       571,
        97,       559,
      97.1,       581,
      97.2,       566,
      97.3,       588,
      97.4,       585,
      97.5,       561,
      97.6,       590,
      97.7,       577,
      97.8,       560,
      97.9,       582,
        98,       574,
      98.1,       593,
      98.2,       601,
      98.3,       538,
      98.4,       578,
      98.5,       548,
      98.6,       597,
      98.7,       528,
      98.8,       570,
      98.9,       583,
        99,       572,
      99.1,       600,
      99.2,       561,
      99.3,       580,
      99.4,       558,
      99.5,       572,
      99.6,       562,
      99.7,       575,
      99.8,       575,
      99.9,       585,
       100,       581,
