        20,       961,
      20.1,       949,
      20.2,       969,
      20.3,       913,
      20.4,       906,
      20.5,       926,
      20.6,       839,
      20.7,       954,
      20.8,       821,
      20.9,       873,
        21,       897,
      21.1,       839,
      21.2,       871,
      21.3,       816,
      21.4,       815,
      21.5,       864,
      21.6,       783,
      21.7,       839,
      21.8,       815,
      21.9,       795,
        22,       809,
      22.1,       838,
      22.2,       788,
      22.3,       768,
      22.4,       809,
      22.5,       745,
      22.6,       762,
      22.7,       758,
      22.8,       767,
      22.9,       671,
        23,       660,
      23.1,       700,
      23.2,       670,
      23.3,       618,
      23.4,       630,
      23.5,       606,
      23.6,       648,
      23.7,       599,
      23.8,       638,
      23.9,       593,
        24,       570,
      24.1,       637,
      24.2,       592,
      24.3,       542,
      24.4,       589,
      24.5,       559,
      24.6,       510,
      24.7,       547,
      24.8,       530,
      24.9,       496,
        25,       516,
      25.1,       498,
      25.2,       484,
      25.3,       485,
      25.4,       503,
      25.5,       518,
      25.6,       511,
      25.7,       497,
      25.8,       490,
      25.9,       456,
        26,       453,
      26.1,       428,
      26.2,       446,
      26.3,       517,
      26.4,       428,
      26.5,       382,
      26.6,       402,
      26.7,       377,
      26.8,       388,
      26.9,       392,
        27,       413,
      27.1,       383,
      27.2,       418,
      27.3,       464,
      27.4,       493,
      27.5,       434,
      27.6,       405,
      27.7,       355,
      27.8,       352,
      27.9,       396,
        28,       443,
      28.1,       517,
      28.2,      1026,
      28.3,      3479,
      28.4,      3669,
      28.5,      2273,
      28.6,      1094,
      28.7,       480,
      28.8,       355,
      28.9,       351,
        29,       341,
      29.1,       332,
      29.2,       337,
      29.3,       307,
      29.4,       344,
      29.5,       299,
      29.6,       289,
      29.7,       275,
      29.8,       287,
      29.9,       310,
        30,       297,
      30.1,       310,
      30.2,       288,
      30.3,       313,
      30.4,       287,
      30.5,       287,
      30.6,       323,
      30.7,       349,
      30.8,       369,
      30.9,       362,
        31,       343,
      31.1,       353,
      31.2,       372,
      31.3,       500,
      31.4,       652,
      31.5,      1288,
      31.6,      6408,
      31.7,     17634,
      31.8,      9076,
      31.9,      2023,
        32,       730,
      32.1,       448,
      32.2,       310,
      32.3,       353,
      32.4,       308,
      32.5,       295,
      32.6,       297,
      32.7,       295,
      32.8,       271,
      32.9,       269,
        33,       286,
      33.1,       274,
      33.2,       276,
      33.3,       259,
      33.4,       254,
      33.5,       252,
      33.6,       241,
      33.7,       254,
      33.8,       249,
      33.9,       216,
        34,       218,
      34.1,       242,
      34.2,       234,
      34.3,       230,
      34.4,       241,
      34.5,       210,
      34.6,       217,
      34.7,       236,
      34.8,       271,
      34.9,       200,
        35,       215,
      35.1,       209,
      35.2,       199,
      35.3,       201,
      35.4,       216,
      35.5,       202,
      35.6,       206,
      35.7,       206,
      35.8,       195,
      35.9,       208,
        36,       198,
      36.1,       197,
      36.2,       214,
      36.3,       208,
      36.4,       251,
      36.5,       229,
      36.6,       188,
      36.7,       181,
      36.8,       200,
      36.9,       192,
        37,       162,
      37.1,       158,
      37.2,       192,
      37.3,       178,
      37.4,       185,
      37.5,       203,
      37.6,       177,
      37.7,       197,
      37.8,       204,
      37.9,       177,
        38,       188,
      38.1,       159,
      38.2,       168,
      38.3,       180,
      38.4,       165,
      38.5,       171,
      38.6,       163,
      38.7,       186,
      38.8,       206,
      38.9,       150,
        39,       166,
      39.1,       192,
      39.2,       170,
      39.3,       200,
      39.4,       177,
      39.5,       187,
      39.6,       188,
      39.7,       220,
      39.8,       168,
      39.9,       209,
        40,       179,
      40.1,       201,
      40.2,       217,
      40.3,       373,
      40.4,      1034,
      40.5,      2686,
      40.6,      1964,
      40.7,       755,
      40.8,       299,
      40.9,       225,
        41,       198,
      41.1,       181,
      41.2,       177,
      41.3,       180,
      41.4,       176,
      41.5,       165,
      41.6,       184,
      41.7,       179,
      41.8,       148,
      41.9,       168,
        42,       160,
      42.1,       158,
      42.2,       154,
      42.3,       187,
      42.4,       162,
      42.5,       179,
      42.6,       167,
      42.7,       178,
      42.8,       164,
      42.9,       164,
        43,       146,
      43.1,       175,
      43.2,       158,
      43.3,       154,
      43.4,       149,
      43.5,       168,
      43.6,       141,
      43.7,       170,
      43.8,       151,
      43.9,       151,
        44,       130,
      44.1,       162,
      44.2,       144,
      44.3,       158,
      44.4,       150,
      44.5,       132,
      44.6,       141,
      44.7,       141,
      44.8,       163,
      44.9,       160,
        45,       157,
      45.1,       199,
      45.2,       232,
      45.3,       414,
      45.4,       849,
      45.5,       966,
      45.6,       584,
      45.7,       268,
      45.8,       176,
      45.9,       169,
        46,       135,
      46.1,       127,
      46.2,       136,
      46.3,       134,
      46.4,       136,
      46.5,       116,
      46.6,       122,
      46.7,       138,
      46.8,       124,
      46.9,       132,
        47,       136,
      47.1,       126,
      47.2,       122,
      47.3,       144,
      47.4,       126,
      47.5,       120,
      47.6,       109,
      47.7,       125,
      47.8,       117,
      47.9,       110,
        48,       144,
      48.1,       140,
      48.2,       126,
      48.3,       113,
      48.4,        93,
      48.5,       119,
      48.6,       150,
      48.7,       125,
      48.8,       118,
      48.9,       110,
        49,       114,
      49.1,       131,
      49.2,       109,
      49.3,       127,
      49.4,       117,
      49.5,       120,
      49.6,       125,
      49.7,       114,
      49.8,       103,
      49.9,       146,
        50,       200,
      50.1,       260,
      50.2,       319,
      50.3,       253,
      50.4,       172,
      50.5,       136,
      50.6,       129,
      50.7,       119,
      50.8,        86,
      50.9,        93,
        51,       109,
      51.1,        93,
      51.2,        85,
      51.3,        94,
      51.4,       103,
      51.5,        91,
      51.6,        84,
      51.7,        85,
      51.8,        87,
      51.9,        99,
        52,        94,
      52.1,       101,
      52.2,        96,
      52.3,        95,
      52.4,        90,
      52.5,       102,
      52.6,        90,
      52.7,       105,
      52.8,        98,
      52.9,        86,
        53,        81,
      53.1,        90,
      53.2,        89,
      53.3,        84,
      53.4,        86,
      53.5,        93,
      53.6,       100,
      53.7,        92,
      53.8,       117,
      53.9,       114,
        54,        80,
      54.1,        95,
      54.2,       103,
      54.3,        94,
      54.4,        68,
      54.5,        80,
      54.6,        89,
      54.7,        76,
      54.8,        93,
      54.9,        87,
        55,        77,
      55.1,        70,
      55.2,        85,
      55.3,        66,
      55.4,        99,
      55.5,        72,
      55.6,        82,
      55.7,        83,
      55.8,        73,
      55.9,        81,
        56,        77,
      56.1,        78,
      56.2,       113,
      56.3,       129,
      56.4,       175,
      56.5,       202,
      56.6,       162,
      56.7,       120,
      56.8,       117,
      56.9,        70,
        57,        80,
      57.1,        86,
      57.2,        74,
      57.3,        68,
      57.4,        83,
      57.5,        66,
      57.6,        58,
      57.7,        86,
      57.8,        83,
      57.9,        95,
        58,        91,
      58.1,        78,
      58.2,        92,
      58.3,        60,
      58.4,       105,
      58.5,       110,
      58.6,       256,
      58.7,       250,
      58.8,       183,
      58.9,       126,
        59,        88,
      59.1,       102,
      59.2,       104,
      59.3,        72,
      59.4,        74,
      59.5,        84,
      59.6,        82,
      59.7,        59,
      59.8,        69,
      59.9,        83,
        60,        56,
      60.1,        64,
      60.2,        68,
      60.3,        69,
      60.4,        67,
      60.5,        69,
      60.6,        73,
      60.7,        49,
      60.8,        59,
      60.9,        60,
        61,        79,
      61.1,        66,
      61.2,        68,
      61.3,        72,
      61.4,        64,
      61.5,        61,
      61.6,        62,
      61.7,        51,
      61.8,        66,
      61.9,        64,
        62,        57,
      62.1,        50,
      62.2,        69,
      62.3,        64,
      62.4,        63,
      62.5,        62,
      62.6,        64,
      62.7,        63,
      62.8,        75,
      62.9,        69,
        63,        51,
      63.1,        53,
      63.2,        63,
      63.3,        55,
      63.4,        57,
      63.5,        59,
      63.6,        70,
      63.7,        71,
      63.8,        51,
      63.9,        84,
        64,        78,
      64.1,        56,
      64.2,        76,
      64.3,        65,
      64.4,        73,
      64.5,        47,
      64.6,        69,
      64.7,        68,
      64.8,        61,
      64.9,        50,
        65,        72,
      65.1,        54,
      65.2,        65,
      65.3,        49,
      65.4,        65,
      65.5,        80,
      65.6,        64,
      65.7,        77,
      65.8,        91,
      65.9,       118,
        66,       198,
      66.1,       452,
      66.2,      1292,
      66.3,       887,
      66.4,      1050,
      66.5,       456,
      66.6,       279,
      66.7,       152,
      66.8,       107,
      66.9,        92,
        67,        76,
      67.1,        64,
      67.2,        72,
      67.3,        73,
      67.4,        74,
      67.5,        72,
      67.6,        60,
      67.7,        69,
      67.8,        63,
      67.9,        50,
        68,        63,
      68.1,        64,
      68.2,        62,
      68.3,        60,
      68.4,        64,
      68.5,        69,
      68.6,        55,
      68.7,        53,
      68.8,        61,
      68.9,        48,
        69,        61,
      69.1,        47,
      69.2,        63,
      69.3,        67,
      69.4,        62,
      69.5,        49,
      69.6,        56,
      69.7,        62,
      69.8,        52,
      69.9,        55,
        70,        54,
      70.1,        39,
      70.2,        53,
      70.3,        53,
      70.4,        55,
      70.5,        68,
      70.6,        55,
      70.7,        62,
      70.8,        57,
      70.9,        59,
        71,        67,
      71.1,        52,
      71.2,        67,
      71.3,        40,
      71.4,        48,
      71.5,        74,
      71.6,        60,
      71.7,        56,
      71.8,        62,
      71.9,        63,
        72,        52,
      72.1,        59,
      72.2,        49,
      72.3,        58,
      72.4,        47,
      72.5,        66,
      72.6,        47,
      72.7,        63,
      72.8,        57,
      72.9,        59,
        73,        54,
      73.1,        71,
      73.2,        57,
      73.3,        63,
      73.4,        66,
      73.5,       109,
      73.6,       173,
      73.7,       395,
      73.8,       219,
      73.9,       214,
        74,       154,
      74.1,        82,
      74.2,        64,
      74.3,        59,
      74.4,        70,
      74.5,        61,
      74.6,        56,
      74.7,        72,
      74.8,        67,
      74.9,        56,
        75,        71,
      75.1,       115,
      75.2,       186,
      75.3,       278,
      75.4,       228,
      75.5,       180,
      75.6,       146,
      75.7,        67,
      75.8,        60,
      75.9,        58,
        76,        54,
      76.1,        46,
      76.2,        44,
      76.3,        46,
      76.4,        50,
      76.5,        61,
      76.6,        42,
      76.7,        50,
      76.8,        53,
      76.9,        66,
        77,        54,
      77.1,        58,
      77.2,        56,
      77.3,        48,
      77.4,        41,
      77.5,        44,
      77.6,        43,
      77.7,        50,
      77.8,        47,
      77.9,        60,
        78,        54,
      78.1,        50,
      78.2,        51,
      78.3,        52,
      78.4,        49,
      78.5,        49,
      78.6,        39,
      78.7,        47,
      78.8,        47,
      78.9,        48,
        79,        44,
      79.1,        53,
      79.2,        45,
      79.3,        42,
      79.4,        40,
      79.5,        48,
      79.6,        54,
      79.7,        67,
      79.8,        36,
      79.9,        49,
        80,        41,
      80.1,        47,
      80.2,        64,
      80.3,        44,
      80.4,        45,
      80.5,        46,
      80.6,        45,
      80.7,        48,
      80.8,        36,
      80.9,        49,
        81,        37,
      81.1,        33,
      81.2,        40,
      81.3,        55,
      81.4,        57,
      81.5,        43,
      81.6,        33,
      81.7,        57,
      81.8,        46,
      81.9,        48,
        82,        42,
      82.1,        35,
      82.2,        34,
      82.3,        48,
      82.4,        46,
      82.5,        55,
      82.6,        44,
      82.7,        47,
      82.8,        51,
      82.9,        32,
        83,        39,
      83.1,        51,
      83.2,        54,
      83.3,        50,
      83.4,        36,
      83.5,        45,
      83.6,        46,
      83.7,        59,
      83.8,        67,
      83.9,        78,
        84,        98,
      84.1,        87,
      84.2,        70,
      84.3,        67,
      84.4,        62,
      84.5,        54,
      84.6,        42,
      84.7,        48,
      84.8,        45,
      84.9,        46,
        85,        58,
      85.1,        41,
      85.2,        40,
      85.3,        51,
      85.4,        53,
      85.5,        28,
      85.6,        47,
      85.7,        32,
      85.8,        49,
      85.9,        38,
        86,        48,
      86.1,        35,
      86.2,        32,
      86.3,        47,
      86.4,        41,
      86.5,        33,
      86.6,        52,
      86.7,        43,
      86.8,        40,
      86.9,        45,
        87,        51,
      87.1,        40,
      87.2,        54,
      87.3,        34,
      87.4,        45,
      87.5,        75,
      87.6,        88,
      87.7,       114,
      87.8,        72,
      87.9,        79,
        88,        91,
      88.1,        49,
      88.2,        28,
      88.3,        48,
      88.4,        53,
      88.5,        35,
      88.6,        45,
      88.7,        44,
      88.8,        32,
      88.9,        33,
        89,        34,
      89.1,        40,
      89.2,        55,
      89.3,        36,
      89.4,        54,
      89.5,        43,
      89.6,        40,
      89.7,        35,
      89.8,        46,
      89.9,        43,
        90,        42,
      90.1,        43,
      90.2,        39,
      90.3,        47,
      90.4,        54,
      90.5,        46,
      90.6,        57,
      90.7,        47,
      90.8,        43,
      90.9,        34,
        91,        45,
      91.1,        35,
      91.2,        44,
      91.3,        33,
      91.4,        48,
      91.5,        23,
      91.6,        38,
      91.7,        52,
      91.8,        41,
      91.9,        45,
        92,        51,
      92.1,        43,
      92.2,        50,
      92.3,        30,
      92.4,        34,
      92.5,        28,
      92.6,        47,
      92.7,        43,
      92.8,        46,
      92.9,        46,
        93,        40,
      93.1,        33,
      93.2,        36,
      93.3,        30,
      93.4,        45,
      93.5,        48,
      93.6,        48,
      93.7,        52,
      93.8,        38,
      93.9,        48,
        94,        48,
      94.1,        56,
      94.2,        49,
      94.3,        75,
      94.4,        84,
      94.5,       113,
      94.6,        88,
      94.7,        92,
      94.8,        69,
      94.9,        71,
        95,        57,
      95.1,        43,
      95.2,        49,
      95.3,        46,
      95.4,        41,
      95.5,        46,
      95.6,        51,
      95.7,        38,
      95.8,        39,
      95.9,        36,
        96,        42,
      96.1,        45,
      96.2,        50,
      96.3,        39,
      96.4,        29,
      96.5,        40,
      96.6,        48,
      96.7,        27,
      96.8,        42,
      96.9,        44,
        97,        29,
      97.1,        31,
      97.2,        36,
      97.3,        47,
      97.4,        38,
      97.5,        38,
      97.6,        30,
      97.7,        27,
      97.8,        35,
      97.9,        41,
        98,        41,
      98.1,        42,
      98.2,        34,
      98.3,        33,
      98.4,        36,
      98.5,        30,
      98.6,        38,
      98.7,        34,
      98.8,        52,
      98.9,        49,
        99,        39,
      99.1,        49,
      99.2,        36,
      99.3,        42,
      99.4,        53,
      99.5,        37,
      99.6,        37,
      99.7,        41,
      99.8,        43,
      99.9,        52,
       100,        30,
     100.1,        37,
     100.2,        33,
     100.3,        44,
     100.4,        33,
     100.5,        44,
     100.6,        32,
     100.7,        49,
     100.8,        38,
     100.9,        49,
       101,        50,
