        20,      1055,
      20.1,      1038,
      20.2,      1111,
      20.3,      1018,
      20.4,      1046,
      20.5,      1014,
      20.6,       987,
      20.7,       986,
      20.8,      1014,
      20.9,       957,
        21,      1033,
      21.1,      1026,
      21.2,       937,
      21.3,       955,
      21.4,       953,
      21.5,       945,
      21.6,       950,
      21.7,       982,
      21.8,       927,
      21.9,       944,
        22,       942,
      22.1,       953,
      22.2,       950,
      22.3,       933,
      22.4,       964,
      22.5,      1014,
      22.6,       974,
      22.7,       818,
      22.8,       793,
      22.9,       769,
        23,       775,
      23.1,       779,
      23.2,       737,
      23.3,       736,
      23.4,       709,
      23.5,       695,
      23.6,       728,
      23.7,       712,
      23.8,       628,
      23.9,       673,
        24,       671,
      24.1,       650,
      24.2,       617,
      24.3,       574,
      24.4,       639,
      24.5,       607,
      24.6,       582,
      24.7,       649,
      24.8,       581,
      24.9,       550,
        25,       575,
      25.1,       559,
      25.2,       537,
      25.3,       555,
      25.4,       566,
      25.5,       652,
      25.6,       509,
      25.7,       548,
      25.8,       506,
      25.9,       489,
        26,       491,
      26.1,       477,
      26.2,       549,
      26.3,       776,
      26.4,       483,
      26.5,       445,
      26.6,       457,
      26.7,       430,
      26.8,       412,
      26.9,       447,
        27,       406,
      27.1,       407,
      27.2,       386,
      27.3,       488,
      27.4,       761,
      27.5,       494,
      27.6,       375,
      27.7,       375,
      27.8,       369,
      27.9,       346,
        28,       382,
      28.1,       376,
      28.2,       328,
      28.3,       424,
      28.4,       423,
      28.5,       722,
      28.6,      1697,
      28.7,       574,
      28.8,       371,
      28.9,       359,
        29,       361,
      29.1,       334,
      29.2,       378,
      29.3,       312,
      29.4,       299,
      29.5,       326,
      29.6,       299,
      29.7,       320,
      29.8,       316,
      29.9,       321,
        30,       316,
      30.1,       269,
      30.2,       312,
      30.3,       380,
      30.4,       403,
      30.5,       371,
      30.6,       611,
      30.7,       640,
      30.8,       621,
      30.9,       627,
        31,       565,
      31.1,       631,
      31.2,       653,
      31.3,       920,
      31.4,      1348,
      31.5,      2157,
      31.6,      7720,
      31.7,     72890,
      31.8,     50038,
      31.9,      6967,
        32,      2388,
      32.1,      1197,
      32.2,       702,
      32.3,       653,
      32.4,       534,
      32.5,       526,
      32.6,       536,
      32.7,       476,
      32.8,       424,
      32.9,       425,
        33,       442,
      33.1,       424,
      33.2,       398,
      33.3,       394,
      33.4,       411,
      33.5,       401,
      33.6,       399,
      33.7,       371,
      33.8,       345,
      33.9,       365,
        34,       358,
      34.1,       329,
      34.2,       343,
      34.3,       337,
      34.4,       341,
      34.5,       339,
      34.6,       390,
      34.7,       328,
      34.8,       336,
      34.9,       318,
        35,       327,
      35.1,       280,
      35.2,       321,
      35.3,       285,
      35.4,       299,
      35.5,       311,
      35.6,       262,
      35.7,       246,
      35.8,       293,
      35.9,       263,
        36,       255,
      36.1,       248,
      36.2,       273,
      36.3,       289,
      36.4,       288,
      36.5,       246,
      36.6,       247,
      36.7,       263,
      36.8,       248,
      36.9,       248,
        37,       264,
      37.1,       264,
      37.2,       249,
      37.3,       231,
      37.4,       247,
      37.5,       266,
      37.6,       245,
      37.7,       239,
      37.8,       227,
      37.9,       241,
        38,       235,
      38.1,       222,
      38.2,       212,
      38.3,       228,
      38.4,       215,
      38.5,       231,
      38.6,       189,
      38.7,       187,
      38.8,       209,
      38.9,       220,
        39,       213,
      39.1,       217,
      39.2,       205,
      39.3,       198,
      39.4,       197,
      39.5,       218,
      39.6,       202,
      39.7,       211,
      39.8,       207,
      39.9,       224,
        40,       217,
      40.1,       205,
      40.2,       221,
      40.3,       182,
      40.4,       163,
      40.5,       215,
      40.6,       206,
      40.7,       186,
      40.8,       206,
      40.9,       263,
        41,       183,
      41.1,       183,
      41.2,       212,
      41.3,       204,
      41.4,       194,
      41.5,       168,
      41.6,       191,
      41.7,       199,
      41.8,       171,
      41.9,       197,
        42,       156,
      42.1,       190,
      42.2,       199,
      42.3,       182,
      42.4,       181,
      42.5,       171,
      42.6,       183,
      42.7,       197,
      42.8,       183,
      42.9,       187,
        43,       185,
      43.1,       174,
      43.2,       170,
      43.3,       176,
      43.4,       174,
      43.5,       165,
      43.6,       161,
      43.7,       171,
      43.8,       192,
      43.9,       201,
        44,       162,
      44.1,       169,
      44.2,       181,
      44.3,       186,
      44.4,       169,
      44.5,       156,
      44.6,       203,
      44.7,       171,
      44.8,       176,
      44.9,       209,
        45,       185,
      45.1,       202,
      45.2,       303,
      45.3,       550,
      45.4,      2428,
      45.5,      3152,
      45.6,      1867,
      45.7,       521,
      45.8,       293,
      45.9,       212,
        46,       180,
      46.1,       176,
      46.2,       176,
      46.3,       179,
      46.4,       177,
      46.5,       163,
      46.6,       151,
      46.7,       143,
      46.8,       151,
      46.9,       131,
        47,       140,
      47.1,       135,
      47.2,       127,
      47.3,       147,
      47.4,       143,
      47.5,       162,
      47.6,       165,
      47.7,       130,
      47.8,       141,
      47.9,       130,
        48,       137,
      48.1,       131,
      48.2,       133,
      48.3,       137,
      48.4,       144,
      48.5,       141,
      48.6,       135,
      48.7,       115,
      48.8,       129,
      48.9,       123,
        49,       130,
      49.1,       139,
      49.2,       139,
      49.3,       119,
      49.4,       118,
      49.5,       107,
      49.6,       118,
      49.7,       135,
      49.8,       125,
      49.9,       121,
        50,       132,
      50.1,       109,
      50.2,       137,
      50.3,       119,
      50.4,       102,
      50.5,        91,
      50.6,       119,
      50.7,       107,
      50.8,       132,
      50.9,       105,
        51,       108,
      51.1,       103,
      51.2,       107,
      51.3,       118,
      51.4,       113,
      51.5,        94,
      51.6,        93,
      51.7,        95,
      51.8,       119,
      51.9,       106,
        52,       106,
      52.1,        90,
      52.2,       109,
      52.3,       118,
      52.4,       111,
      52.5,       107,
      52.6,        96,
      52.7,        92,
      52.8,        87,
      52.9,       123,
        53,        89,
      53.1,        74,
      53.2,       101,
      53.3,       104,
      53.4,        99,
      53.5,       102,
      53.6,        84,
      53.7,        84,
      53.8,       146,
      53.9,       166,
        54,       152,
      54.1,       118,
      54.2,       101,
      54.3,        92,
      54.4,        84,
      54.5,        92,
      54.6,        89,
      54.7,        87,
      54.8,        83,
      54.9,        95,
        55,        98,
      55.1,       111,
      55.2,        81,
      55.3,        98,
      55.4,        91,
      55.5,        61,
      55.6,       109,
      55.7,        85,
      55.8,        94,
      55.9,       107,
        56,        93,
      56.1,        89,
      56.2,        91,
      56.3,       186,
      56.4,       382,
      56.5,       681,
      56.6,       468,
      56.7,       236,
      56.8,       133,
      56.9,        99,
        57,        98,
      57.1,        72,
      57.2,        67,
      57.3,        70,
      57.4,        81,
      57.5,        75,
      57.6,        80,
      57.7,        96,
      57.8,        85,
      57.9,        77,
        58,        71,
      58.1,        82,
      58.2,        78,
      58.3,        79,
      58.4,        76,
      58.5,        59,
      58.6,        68,
      58.7,        78,
      58.8,        74,
      58.9,        75,
        59,        68,
      59.1,       111,
      59.2,       150,
      59.3,        78,
      59.4,        81,
      59.5,        88,
      59.6,        72,
      59.7,        71,
      59.8,        76,
      59.9,        89,
        60,        69,
      60.1,        75,
      60.2,        65,
      60.3,        75,
      60.4,        78,
      60.5,        69,
      60.6,        77,
      60.7,        66,
      60.8,        68,
      60.9,        61,
        61,        79,
      61.1,        74,
      61.2,        53,
      61.3,        77,
      61.4,        79,
      61.5,        74,
      61.6,        73,
      61.7,        64,
      61.8,        57,
      61.9,        49,
        62,        65,
      62.1,        69,
      62.2,        62,
      62.3,        73,
      62.4,        48,
      62.5,        83,
      62.6,        67,
      62.7,        68,
      62.8,        61,
      62.9,        71,
        63,        71,
      63.1,        61,
      63.2,        58,
      63.3,        68,
      63.4,        60,
      63.5,        60,
      63.6,        67,
      63.7,        78,
      63.8,        86,
      63.9,        74,
        64,        87,
      64.1,        74,
      64.2,        71,
      64.3,        86,
      64.4,        77,
      64.5,        92,
      64.6,        80,
      64.7,        68,
      64.8,        61,
      64.9,        75,
        65,        88,
      65.1,        87,
      65.2,        80,
      65.3,        74,
      65.4,        89,
      65.5,       103,
      65.6,        77,
      65.7,       100,
      65.8,       119,
      65.9,       160,
        66,       220,
      66.1,       544,
      66.2,      2929,
      66.3,      2205,
      66.4,      1866,
      66.5,       855,
      66.6,       249,
      66.7,       141,
      66.8,       109,
      66.9,       117,
        67,       119,
      67.1,        93,
      67.2,        95,
      67.3,        73,
      67.4,        75,
      67.5,        91,
      67.6,        76,
      67.7,        63,
      67.8,        87,
      67.9,        58,
        68,        76,
      68.1,        69,
      68.2,        70,
      68.3,        83,
      68.4,        73,
      68.5,        74,
      68.6,        75,
      68.7,        62,
      68.8,        63,
      68.9,        59,
        69,        66,
      69.1,        64,
      69.2,        66,
      69.3,        46,
      69.4,        70,
      69.5,        60,
      69.6,        53,
      69.7,        68,
      69.8,        67,
      69.9,        64,
        70,        56,
      70.1,        52,
      70.2,        57,
      70.3,        62,
      70.4,        59,
      70.5,        71,
      70.6,        66,
      70.7,        62,
      70.8,        72,
      70.9,        53,
        71,        50,
      71.1,        54,
      71.2,        67,
      71.3,        67,
      71.4,        58,
      71.5,        54,
      71.6,        65,
      71.7,        60,
      71.8,        71,
      71.9,        73,
        72,        68,
      72.1,        44,
      72.2,        78,
      72.3,        75,
      72.4,        76,
      72.5,        54,
      72.6,        67,
      72.7,        73,
      72.8,        58,
      72.9,        67,
        73,        90,
      73.1,        85,
      73.2,        84,
      73.3,        85,
      73.4,        54,
      73.5,        64,
      73.6,        60,
      73.7,        57,
      73.8,        66,
      73.9,        57,
        74,        56,
      74.1,        78,
      74.2,        61,
      74.3,        70,
      74.4,        69,
      74.5,        92,
      74.6,        75,
      74.7,        72,
      74.8,        78,
      74.9,        87,
        75,       118,
      75.1,       208,
      75.2,       649,
      75.3,      1375,
      75.4,       663,
      75.5,       775,
      75.6,       394,
      75.7,       138,
      75.8,        99,
      75.9,        72,
        76,        69,
      76.1,        69,
      76.2,        71,
      76.3,        66,
      76.4,        66,
      76.5,        49,
      76.6,        72,
      76.7,        74,
      76.8,        62,
      76.9,        68,
        77,        66,
      77.1,        58,
      77.2,        45,
      77.3,        46,
      77.4,        49,
      77.5,        57,
      77.6,        54,
      77.7,        68,
      77.8,        67,
      77.9,        52,
        78,        47,
      78.1,        48,
      78.2,        61,
      78.3,        63,
      78.4,        70,
      78.5,        50,
      78.6,        48,
      78.7,        61,
      78.8,        53,
      78.9,        57,
        79,        47,
      79.1,        50,
      79.2,        70,
      79.3,        44,
      79.4,        47,
      79.5,        54,
      79.6,        68,
      79.7,        68,
      79.8,        65,
      79.9,        50,
        80,        61,
      80.1,        71,
      80.2,        47,
      80.3,        44,
      80.4,        54,
      80.5,        52,
      80.6,        52,
      80.7,        48,
      80.8,        44,
      80.9,        55,
        81,        76,
      81.1,        54,
      81.2,        65,
      81.3,        41,
      81.4,        59,
      81.5,        55,
      81.6,        51,
      81.7,        49,
      81.8,        60,
      81.9,        49,
        82,        51,
      82.1,        59,
      82.2,        62,
      82.3,        61,
      82.4,        45,
      82.5,        55,
      82.6,        54,
      82.7,        69,
      82.8,        49,
      82.9,        61,
        83,        54,
      83.1,        51,
      83.2,        67,
      83.3,        67,
      83.4,        60,
      83.5,        65,
      83.6,        75,
      83.7,        94,
      83.8,       130,
      83.9,       399,
        84,      1035,
      84.1,       383,
      84.2,       412,
      84.3,       432,
      84.4,       144,
      84.5,        76,
      84.6,        59,
      84.7,        63,
      84.8,        53,
      84.9,        61,
        85,        44,
      85.1,        54,
      85.2,        56,
      85.3,        53,
      85.4,        52,
      85.5,        51,
      85.6,        61,
      85.7,        57,
      85.8,        49,
      85.9,        57,
        86,        57,
      86.1,        49,
      86.2,        56,
      86.3,        54,
      86.4,        64,
      86.5,        53,
      86.6,        57,
      86.7,        47,
      86.8,        38,
      86.9,        59,
        87,        43,
      87.1,        31,
      87.2,        41,
      87.3,        57,
      87.4,        41,
      87.5,        44,
      87.6,        39,
      87.7,        44,
      87.8,        47,
      87.9,        40,
        88,        59,
      88.1,        52,
      88.2,        39,
      88.3,        47,
      88.4,        46,
      88.5,        45,
      88.6,        45,
      88.7,        39,
      88.8,        47,
      88.9,        49,
        89,        58,
      89.1,        50,
      89.2,        45,
      89.3,        44,
      89.4,        47,
      89.5,        42,
      89.6,        47,
      89.7,        44,
      89.8,        29,
      89.9,        53,
        90,        52,
      90.1,        37,
      90.2,        64,
      90.3,        57,
      90.4,        84,
      90.5,        74,
      90.6,        75,
      90.7,        80,
      90.8,        41,
      90.9,        40,
        91,        40,
      91.1,        51,
      91.2,        35,
      91.3,        53,
      91.4,        44,
      91.5,        41,
      91.6,        59,
      91.7,        33,
      91.8,        52,
      91.9,        41,
        92,        46,
      92.1,        41,
      92.2,        35,
      92.3,        39,
      92.4,        50,
      92.5,        41,
      92.6,        55,
      92.7,        45,
      92.8,        46,
      92.9,        45,
        93,        41,
      93.1,        52,
      93.2,        39,
      93.3,        41,
      93.4,        42,
      93.5,        36,
      93.6,        44,
      93.7,        44,
      93.8,        36,
      93.9,        47,
        94,        51,
      94.1,        46,
      94.2,        41,
      94.3,        47,
      94.4,        65,
      94.5,        47,
      94.6,        45,
      94.7,        46,
      94.8,        44,
      94.9,        45,
        95,        49,
      95.1,        37,
      95.2,        36,
      95.3,        48,
      95.4,        53,
      95.5,        48,
      95.6,        46,
      95.7,        30,
      95.8,        43,
      95.9,        44,
        96,        43,
      96.1,        38,
      96.2,        43,
      96.3,        48,
      96.4,        36,
      96.5,        53,
      96.6,        30,
      96.7,        30,
      96.8,        36,
      96.9,        41,
        97,        40,
      97.1,        39,
      97.2,        49,
      97.3,        49,
      97.4,        50,
      97.5,        53,
      97.6,        51,
      97.7,        51,
      97.8,        46,
      97.9,        40,
        98,        38,
      98.1,        42,
      98.2,        52,
      98.3,        36,
      98.4,        42,
      98.5,        42,
      98.6,        30,
      98.7,        42,
      98.8,        44,
      98.9,        36,
        99,        52,
      99.1,        38,
      99.2,        39,
      99.3,        39,
      99.4,        54,
      99.5,        50,
      99.6,        38,
      99.7,        49,
      99.8,        36,
      99.9,        50,
       100,        45,
     100.1,        41,
     100.2,        25,
     100.3,        37,
     100.4,        44,
     100.5,        46,
     100.6,        57,
     100.7,        47,
     100.8,        49,
     100.9,        59,
       101,        71,
     101.1,        89,
     101.2,       118,
     101.3,        74,
     101.4,        74,
     101.5,        84,
     101.6,        70,
     101.7,        53,
     101.8,        51,
     101.9,        44,
       102,        49,
     102.1,        48,
     102.2,        46,
     102.3,        38,
     102.4,        44,
     102.5,        48,
     102.6,        42,
     102.7,        48,
     102.8,        53,
     102.9,        31,
       103,        57,
     103.1,        42,
     103.2,        49,
     103.3,        39,
     103.4,        46,
     103.5,        38,
     103.6,        50,
     103.7,        41,
     103.8,        39,
     103.9,        42,
       104,        30,
     104.1,        43,
     104.2,        39,
     104.3,        55,
     104.4,        55,
     104.5,        40,
     104.6,        54,
     104.7,        53,
     104.8,        43,
     104.9,        44,
       105,        45,
     105.1,        40,
     105.2,        37,
     105.3,        39,
     105.4,        51,
     105.5,        53,
     105.6,        49,
     105.7,        41,
     105.8,        43,
     105.9,        35,
       106,        52,
     106.1,        63,
     106.2,        37,
     106.3,        46,
     106.4,        38,
     106.5,        52,
     106.6,        47,
     106.7,        50,
     106.8,        36,
     106.9,        52,
       107,        49,
     107.1,        55,
     107.2,        44,
     107.3,        44,
     107.4,        56,
     107.5,        64,
     107.6,        68,
     107.7,        70,
     107.8,        92,
     107.9,        61,
       108,        63,
     108.1,        60,
     108.2,        64,
     108.3,        57,
     108.4,        62,
     108.5,        53,
     108.6,        57,
     108.7,        55,
     108.8,        67,
     108.9,        49,
       109,        56,
     109.1,        58,
     109.2,        56,
     109.3,        58,
     109.4,        56,
     109.5,        54,
     109.6,        66,
     109.7,        99,
     109.8,       114,
     109.9,       209,
       110,       521,
     110.1,       515,
     110.2,       242,
     110.3,       173,
     110.4,       282,
     110.5,       313,
     110.6,       150,
     110.7,       114,
     110.8,        87,
     110.9,        65,
       111,        69,
     111.1,        43,
     111.2,        59,
     111.3,        63,
     111.4,        61,
     111.5,        48,
     111.6,        55,
     111.7,        34,
     111.8,        58,
     111.9,        52,
       112,        48,
     112.1,        67,
     112.2,        45,
     112.3,        37,
     112.4,        57,
     112.5,        56,
     112.6,        59,
     112.7,        44,
     112.8,        51,
     112.9,        54,
       113,        46,
     113.1,        34,
     113.2,        48,
     113.3,        58,
     113.4,        52,
     113.5,        48,
     113.6,        48,
     113.7,        46,
     113.8,        57,
     113.9,        49,
       114,        59,
     114.1,        57,
     114.2,        53,
     114.3,        46,
     114.4,        46,
     114.5,        50,
     114.6,        47,
     114.7,        50,
     114.8,        50,
     114.9,        51,
       115,        51,
     115.1,        63,
     115.2,        53,
     115.3,        45,
     115.4,        56,
     115.5,        47,
     115.6,        53,
     115.7,        48,
     115.8,        61,
     115.9,        64,
       116,        48,
     116.1,        44,
     116.2,        55,
     116.3,        62,
     116.4,        64,
     116.5,        50,
     116.6,        46,
     116.7,        48,
     116.8,        50,
     116.9,        48,
       117,        55,
     117.1,        47,
     117.2,        35,
     117.3,        52,
     117.4,        44,
     117.5,        43,
     117.6,        55,
     117.7,        36,
     117.8,        62,
     117.9,        56,
       118,        64,
     118.1,        54,
     118.2,        50,
     118.3,        49,
     118.4,        57,
     118.5,        48,
     118.6,        52,
     118.7,        53,
     118.8,        52,
     118.9,        64,
       119,        72,
     119.1,        71,
     119.2,        72,
     119.3,        87,
     119.4,       218,
     119.5,       196,
     119.6,       191,
     119.7,       136,
     119.8,        91,
     119.9,       138,
       120,       159,
