        20,       773,
      20.1,       748,
      20.2,       780,
      20.3,       725,
      20.4,       781,
      20.5,       713,
      20.6,       784,
      20.7,       768,
      20.8,       698,
      20.9,       689,
        21,       718,
      21.1,       749,
      21.2,       656,
      21.3,       728,
      21.4,       701,
      21.5,       672,
      21.6,       680,
      21.7,       659,
      21.8,       728,
      21.9,       694,
        22,       686,
      22.1,       651,
      22.2,       643,
      22.3,       640,
      22.4,       640,
      22.5,       647,
      22.6,       686,
      22.7,       652,
      22.8,       612,
      22.9,       595,
        23,       546,
      23.1,       586,
      23.2,       597,
      23.3,       574,
      23.4,       579,
      23.5,       532,
      23.6,       530,
      23.7,       510,
      23.8,       498,
      23.9,       537,
        24,       479,
      24.1,       499,
      24.2,       500,
      24.3,       472,
      24.4,       488,
      24.5,       426,
      24.6,       460,
      24.7,       438,
      24.8,       454,
      24.9,       443,
        25,       466,
      25.1,       430,
      25.2,       410,
      25.3,       425,
      25.4,       408,
      25.5,       359,
      25.6,       427,
      25.7,       415,
      25.8,       407,
      25.9,       395,
        26,       346,
      26.1,       380,
      26.2,       352,
      26.3,       343,
      26.4,       362,
      26.5,       360,
      26.6,       345,
      26.7,       333,
      26.8,       323,
      26.9,       298,
        27,       330,
      27.1,       312,
      27.2,       319,
      27.3,       309,
      27.4,       359,
      27.5,       392,
      27.6,       467,
      27.7,       518,
      27.8,       413,
      27.9,       330,
        28,       273,
      28.1,       258,
      28.2,       272,
      28.3,       250,
      28.4,       257,
      28.5,       287,
      28.6,       277,
      28.7,       287,
      28.8,       374,
      28.9,       488,
        29,       330,
      29.1,       279,
      29.2,       248,
      29.3,       275,
      29.4,       220,
      29.5,       260,
      29.6,       236,
      29.7,       206,
      29.8,       228,
      29.9,       214,
        30,       228,
      30.1,       220,
      30.2,       236,
      30.3,       236,
      30.4,       264,
      30.5,       229,
      30.6,       195,
      30.7,       268,
      30.8,       283,
      30.9,       300,
        31,       317,
      31.1,       314,
      31.2,       282,
      31.3,       293,
      31.4,       349,
      31.5,       361,
      31.6,       585,
      31.7,      1177,
      31.8,      1827,
      31.9,      5701,
        32,     15595,
      32.1,     12734,
      32.2,      3854,
      32.3,       998,
      32.4,       547,
      32.5,       394,
      32.6,       276,
      32.7,       280,
      32.8,       285,
      32.9,       260,
        33,       275,
      33.1,       214,
      33.2,       242,
      33.3,       225,
      33.4,       227,
      33.5,       213,
      33.6,       209,
      33.7,       244,
      33.8,       206,
      33.9,       226,
        34,       207,
      34.1,       205,
      34.2,       210,
      34.3,       210,
      34.4,       184,
      34.5,       205,
      34.6,       180,
      34.7,       210,
      34.8,       198,
      34.9,       186,
        35,       183,
      35.1,       183,
      35.2,       166,
      35.3,       195,
      35.4,       188,
      35.5,       160,
      35.6,       166,
      35.7,       171,
      35.8,       179,
      35.9,       161,
        36,       165,
      36.1,       161,
      36.2,       152,
      36.3,       163,
      36.4,       165,
      36.5,       180,
      36.6,       182,
      36.7,       161,
      36.8,       159,
      36.9,       164,
        37,       168,
      37.1,       136,
      37.2,       157,
      37.3,       179,
      37.4,       175,
      37.5,       182,
      37.6,       155,
      37.7,       135,
      37.8,       159,
      37.9,       157,
        38,       150,
      38.1,       132,
      38.2,       126,
      38.3,       145,
      38.4,       134,
      38.5,       131,
      38.6,       140,
      38.7,       124,
      38.8,       156,
      38.9,       137,
        39,       158,
      39.1,       147,
      39.2,       139,
      39.3,       141,
      39.4,       140,
      39.5,       140,
      39.6,       129,
      39.7,       144,
      39.8,       146,
      39.9,       128,
        40,       145,
      40.1,       135,
      40.2,       131,
      40.3,       136,
      40.4,       133,
      40.5,       132,
      40.6,       118,
      40.7,       110,
      40.8,       130,
      40.9,       138,
        41,       133,
      41.1,       152,
      41.2,       178,
      41.3,       140,
      41.4,       154,
      41.5,       126,
      41.6,       126,
      41.7,       136,
      41.8,       139,
      41.9,       125,
        42,       138,
      42.1,       126,
      42.2,       137,
      42.3,       139,
      42.4,       108,
      42.5,       129,
      42.6,       111,
      42.7,       119,
      42.8,       119,
      42.9,       111,
        43,       120,
      43.1,       110,
      43.2,       124,
      43.3,       127,
      43.4,       101,
      43.5,       120,
      43.6,       113,
      43.7,       133,
      43.8,       144,
      43.9,       146,
        44,       149,
      44.1,       108,
      44.2,       126,
      44.3,       146,
      44.4,       127,
      44.5,       126,
      44.6,       123,
      44.7,       148,
      44.8,       132,
      44.9,       130,
        45,       137,
      45.1,       148,
      45.2,       154,
      45.3,       250,
      45.4,       508,
      45.5,       854,
      45.6,       971,
      45.7,      1726,
      45.8,      1862,
      45.9,      1166,
        46,       425,
      46.1,       216,
      46.2,       161,
      46.3,       128,
      46.4,       136,
      46.5,       118,
      46.6,       124,
      46.7,       129,
      46.8,       113,
      46.9,       131,
        47,       111,
      47.1,       122,
      47.2,       134,
      47.3,       126,
      47.4,       115,
      47.5,       105,
      47.6,       117,
      47.7,        95,
      47.8,       112,
      47.9,       105,
        48,       114,
      48.1,       111,
      48.2,        83,
      48.3,       102,
      48.4,       105,
      48.5,        84,
      48.6,       105,
      48.7,        89,
      48.8,        72,
      48.9,       113,
        49,       110,
      49.1,        87,
      49.2,        94,
      49.3,        88,
      49.4,        95,
      49.5,       104,
      49.6,        72,
      49.7,        86,
      49.8,        76,
      49.9,        83,
        50,        96,
      50.1,       104,
      50.2,        94,
      50.3,        72,
      50.4,        86,
      50.5,        72,
      50.6,        93,
      50.7,        92,
      50.8,        90,
      50.9,        93,
        51,       112,
      51.1,        72,
      51.2,        76,
      51.3,        83,
      51.4,        75,
      51.5,        87,
      51.6,        76,
      51.7,        88,
      51.8,        74,
      51.9,        94,
        52,        83,
      52.1,        75,
      52.2,        79,
      52.3,        90,
      52.4,        74,
      52.5,        78,
      52.6,        74,
      52.7,        67,
      52.8,        93,
      52.9,        85,
        53,        66,
      53.1,        65,
      53.2,        67,
      53.3,        76,
      53.4,        80,
      53.5,        61,
      53.6,        66,
      53.7,        84,
      53.8,        89,
      53.9,        99,
        54,       100,
      54.1,       117,
      54.2,       116,
      54.3,       114,
      54.4,        99,
      54.5,        79,
      54.6,        62,
      54.7,        64,
      54.8,        70,
      54.9,        86,
        55,        63,
      55.1,        82,
      55.2,        73,
      55.3,        66,
      55.4,        63,
      55.5,        65,
      55.6,        75,
      55.7,        64,
      55.8,        68,
      55.9,        70,
        56,        78,
      56.1,        85,
      56.2,        80,
      56.3,        89,
      56.4,       155,
      56.5,       227,
      56.6,       295,
      56.7,       401,
      56.8,       404,
      56.9,       316,
        57,       187,
      57.1,        96,
      57.2,        71,
      57.3,        81,
      57.4,        68,
      57.5,        73,
      57.6,        74,
      57.7,        75,
      57.8,        70,
      57.9,        53,
        58,        58,
      58.1,        46,
      58.2,        54,
      58.3,        66,
      58.4,        68,
      58.5,        56,
      58.6,        65,
      58.7,        66,
      58.8,        58,
      58.9,        64,
        59,        59,
      59.1,        55,
      59.2,        60,
      59.3,        61,
      59.4,        67,
      59.5,        81,
      59.6,        63,
      59.7,        48,
      59.8,        63,
      59.9,        64,
        60,        63,
      60.1,        68,
      60.2,        74,
      60.3,        47,
      60.4,        58,
      60.5,        55,
      60.6,        48,
      60.7,        63,
      60.8,        49,
      60.9,        68,
        61,        65,
      61.1,        46,
      61.2,        51,
      61.3,        54,
      61.4,        66,
      61.5,        49,
      61.6,        57,
      61.7,        53,
      61.8,        48,
      61.9,        54,
        62,        54,
      62.1,        53,
      62.2,        66,
      62.3,        45,
      62.4,        60,
      62.5,        56,
      62.6,        74,
      62.7,        55,
      62.8,        38,
      62.9,        52,
        63,        46,
      63.1,        61,
      63.2,        47,
      63.3,        64,
      63.4,        50,
      63.5,        51,
      63.6,        51,
      63.7,        51,
      63.8,        50,
      63.9,        56,
        64,        62,
      64.1,        54,
      64.2,        55,
      64.3,        59,
      64.4,        58,
      64.5,        53,
      64.6,        58,
      64.7,        42,
      64.8,        53,
      64.9,        67,
        65,        68,
      65.1,        39,
      65.2,        62,
      65.3,        57,
      65.4,        64,
      65.5,        49,
      65.6,        66,
      65.7,        47,
      65.8,        56,
      65.9,        76,
        66,        72,
      66.1,       117,
      66.2,       167,
      66.3,       222,
      66.4,       455,
      66.5,       681,
      66.6,       564,
      66.7,       382,
      66.8,       185,
      66.9,        89,
        67,        88,
      67.1,        81,
      67.2,        61,
      67.3,        58,
      67.4,        68,
      67.5,        55,
      67.6,        69,
      67.7,        45,
      67.8,        62,
      67.9,        43,
        68,        48,
      68.1,        43,
      68.2,        60,
      68.3,        54,
      68.4,        56,
      68.5,        45,
      68.6,        57,
      68.7,        48,
      68.8,        59,
      68.9,        53,
        69,        48,
      69.1,        50,
      69.2,        60,
      69.3,        49,
      69.4,        61,
      69.5,        58,
      69.6,        46,
      69.7,        62,
      69.8,        48,
      69.9,        43,
        70,        49,
      70.1,        58,
      70.2,        47,
      70.3,        60,
      70.4,        39,
      70.5,        43,
      70.6,        46,
      70.7,        48,
      70.8,        60,
      70.9,        29,
        71,        58,
      71.1,        59,
      71.2,        46,
      71.3,        56,
      71.4,        39,
      71.5,        42,
      71.6,        43,
      71.7,        55,
      71.8,        50,
      71.9,        58,
        72,        41,
      72.1,        52,
      72.2,        48,
      72.3,        59,
      72.4,        53,
      72.5,        50,
      72.6,        30,
      72.7,        59,
      72.8,        69,
      72.9,        59,
        73,        61,
      73.1,        81,
      73.2,        74,
      73.3,        92,
      73.4,        68,
      73.5,        64,
      73.6,        64,
      73.7,        61,
      73.8,        48,
      73.9,        49,
        74,        55,
      74.1,        62,
      74.2,        45,
      74.3,        57,
      74.4,        47,
      74.5,        60,
      74.6,        57,
      74.7,        71,
      74.8,        74,
      74.9,        61,
        75,        75,
      75.1,       122,
      75.2,       207,
      75.3,       334,
      75.4,       451,
      75.5,       513,
      75.6,       527,
      75.7,       338,
      75.8,       248,
      75.9,       143,
        76,        87,
      76.1,        75,
      76.2,        56,
      76.3,        48,
      76.4,        57,
      76.5,        61,
      76.6,        56,
      76.7,        53,
      76.8,        59,
      76.9,        51,
        77,        58,
      77.1,        48,
      77.2,        53,
      77.3,        41,
      77.4,        52,
      77.5,        50,
      77.6,        53,
      77.7,        42,
      77.8,        50,
      77.9,        50,
        78,        59,
      78.1,        52,
      78.2,        56,
      78.3,        43,
      78.4,        55,
      78.5,        46,
      78.6,        52,
      78.7,        51,
      78.8,        50,
      78.9,        55,
        79,        39,
      79.1,        49,
      79.2,        40,
      79.3,        45,
      79.4,        39,
      79.5,        52,
      79.6,        40,
      79.7,        46,
      79.8,        53,
      79.9,        44,
        80,        64,
      80.1,        54,
      80.2,        48,
      80.3,        44,
      80.4,        49,
      80.5,        39,
      80.6,        38,
      80.7,        40,
      80.8,        51,
      80.9,        47,
        81,        42,
      81.1,        32,
      81.2,        44,
      81.3,        41,
      81.4,        55,
      81.5,        52,
      81.6,        62,
      81.7,        43,
      81.8,        63,
      81.9,        41,
        82,        33,
      82.1,        55,
      82.2,        54,
      82.3,        59,
      82.4,        44,
      82.5,        41,
      82.6,        49,
      82.7,        53,
      82.8,        51,
      82.9,        55,
        83,        50,
      83.1,        48,
      83.2,        55,
      83.3,        45,
      83.4,        48,
      83.5,        52,
      83.6,        53,
      83.7,        68,
      83.8,       101,
      83.9,       159,
        84,       239,
      84.1,       240,
      84.2,       326,
      84.3,       242,
      84.4,       211,
      84.5,       153,
      84.6,       100,
      84.7,        84,
      84.8,        62,
      84.9,        75,
        85,        50,
      85.1,        50,
      85.2,        58,
      85.3,        48,
      85.4,        56,
      85.5,        42,
      85.6,        46,
      85.7,        51,
      85.8,        45,
      85.9,        46,
        86,        47,
      86.1,        40,
      86.2,        46,
      86.3,        47,
      86.4,        40,
      86.5,        49,
      86.6,        39,
      86.7,        51,
      86.8,        28,
      86.9,        34,
        87,        42,
      87.1,        53,
      87.2,        37,
      87.3,        42,
      87.4,        44,
      87.5,        43,
      87.6,        48,
      87.7,        50,
      87.8,        39,
      87.9,        44,
        88,        42,
      88.1,        40,
      88.2,        42,
      88.3,        44,
      88.4,        43,
      88.5,        38,
      88.6,        47,
      88.7,        49,
      88.8,        46,
      88.9,        45,
        89,        36,
      89.1,        50,
      89.2,        39,
      89.3,        50,
      89.4,        46,
      89.5,        43,
      89.6,        41,
      89.7,        41,
      89.8,        44,
      89.9,        41,
        90,        47,
      90.1,        49,
      90.2,        52,
      90.3,        51,
      90.4,        54,
      90.5,        71,
      90.6,        50,
      90.7,        66,
      90.8,        58,
      90.9,        51,
        91,        52,
      91.1,        35,
      91.2,        44,
      91.3,        49,
      91.4,        54,
      91.5,        34,
      91.6,        29,
      91.7,        40,
      91.8,        50,
      91.9,        51,
        92,        39,
      92.1,        45,
      92.2,        43,
      92.3,        44,
      92.4,        46,
      92.5,        44,
      92.6,        38,
      92.7,        38,
      92.8,        53,
      92.9,        28,
        93,        54,
      93.1,        41,
      93.2,        36,
      93.3,        40,
      93.4,        29,
      93.5,        27,
      93.6,        41,
      93.7,        41,
      93.8,        32,
      93.9,        41,
        94,        41,
      94.1,        37,
      94.2,        34,
      94.3,        39,
      94.4,        41,
      94.5,        30,
      94.6,        45,
      94.7,        54,
      94.8,        50,
      94.9,        32,
        95,        24,
      95.1,        41,
      95.2,        37,
      95.3,        49,
      95.4,        31,
      95.5,        43,
      95.6,        48,
      95.7,        41,
      95.8,        36,
      95.9,        31,
        96,        44,
      96.1,        40,
      96.2,        29,
      96.3,        35,
      96.4,        36,
      96.5,        43,
      96.6,        34,
      96.7,        36,
      96.8,        32,
      96.9,        38,
        97,        45,
      97.1,        37,
      97.2,        47,
      97.3,        35,
      97.4,        40,
      97.5,        37,
      97.6,        56,
      97.7,        42,
      97.8,        51,
      97.9,        30,
        98,        44,
      98.1,        29,
      98.2,        40,
      98.3,        39,
      98.4,        33,
      98.5,        38,
      98.6,        31,
      98.7,        39,
      98.8,        37,
      98.9,        45,
        99,        50,
      99.1,        49,
      99.2,        49,
      99.3,        36,
      99.4,        38,
      99.5,        33,
      99.6,        43,
      99.7,        39,
      99.8,        45,
      99.9,        43,
       100,        46,
