;RAW4.00
[RawHeader]
Date=10/21/2021
EstimatedTotalTime=0
FurtherDQLReading=0
HardwareIndicator=65519
MeasuredTotalTime=0
MeasurementFlag=1
NumberOfMeasuredRanges=1
NumberOfRanges=1
Time=17:11:23

[HardwareConfiguration]
AbsorptionFactor=0
ActivateAbsorber=0
Alpha1=1.5406
Alpha2=1.54439
AlphaAverage=1.54184
AlphaRatio=0.5
Analyzer=0
Anode=Cu
AntiScatteringSlit=1
BeamOpticsFlags=61
Beta=1.39222
BetaRelativeIntensity=0
DeactivateAbsorber=0
DetectorSlit=0.2
DivergenceSlit=1
GoniometerControl=9999
GoniometerDiameter=401
GoniometerModel=257
GoniometerStage=0
Monochromator=0
NearSampleSlit=0
PrimarySollerSlit=2.5
SampleChanger=0
SecondSollerSlit=2.5
SynchronousAxis=0
ThinFilmAttachment=0
WaveUnit=A

[VarInfo]
Type=OSUSER
Flags=0
Value=gxa963

[VarInfo]
Type=USER
Flags=0
Value=IT Services

[VarInfo]
Type=SITE
Flags=0
Value=Physics

[VarInfo]
Type=CREATOR
Flags=0
Value=XRD Commander

[RangeHeader]
ActuallyUsedLambda=1.5406
AdditionalDetectorMask=0
DataRecordLength=4
DelayTime=0
DisplayPlaneNumber=0
EstimatedScanTime=0
ExtraParametersMask=0
GeneratorCurrent=9999
GeneratorVoltage=9999
Increment=0.1
Increment3=0
NumberOfCompletedData=801
NumberOfCounts=1
NumberOfDetectors=1
NumberOfDrives=2
NumberOfEncoderDrives=0
NumberOfMeasuredData=801
NumberOfVaryingParameters=0
RangeStartTime=1084227584
RotationSpeed=0
ScanMode=1
ScanType=Locked Coupled
SimulatedMeasConditions=0
SlitChangerIn=9999
SmootingWidth=0
Start=20
Steps=801
SynchronousRotation=0
Time=2

[Drive]
DriveFlags=1
DriveName=Theta
DriveNumber=1
DriveOffset=0
OffsetIndex=0
OscillationAmplitude=0
OscillationSpeed=0
StartPosition=10

[Drive]
DriveFlags=1
DriveName=2Theta
DriveNumber=2
DriveOffset=0
OffsetIndex=0
OscillationAmplitude=0
OscillationSpeed=0
StartPosition=20

[Detector]
AmplifierGain=2
ConstantDeadTime=0
DetectorFlags=256
DetectorName=Detector 1
DetectorNumber=1
DetectorType=1
Discriminator1LowerLevel=0.5
Discriminator1WindowWidth=0.9
Discriminator2LowerLevel=0
Discriminator2WindowWidth=0
HighVoltage=838.3
PileUpTime=0
PulseShaping=9999
TTLDetectorName=

[Data]
     Angle, Det1Disc1,
        20,       141,
      20.1,       135,
      20.2,       133,
      20.3,       119,
      20.4,       114,
      20.5,       120,
      20.6,       132,
      20.7,       115,
      20.8,       109,
      20.9,       127,
        21,       126,
      21.1,       110,
      21.2,       100,
      21.3,        84,
      21.4,       109,
      21.5,       101,
      21.6,       108,
      21.7,       110,
      21.8,       100,
      21.9,        96,
        22,        95,
      22.1,       116,
      22.2,       116,
      22.3,       106,
      22.4,       119,
      22.5,       115,
      22.6,       105,
      22.7,        88,
      22.8,        92,
      22.9,        93,
        23,       110,
      23.1,       105,
      23.2,        97,
      23.3,       103,
      23.4,        90,
      23.5,       101,
      23.6,        85,
      23.7,        75,
      23.8,        85,
      23.9,        86,
        24,        89,
      24.1,        98,
      24.2,        96,
      24.3,        82,
      24.4,       110,
      24.5,        82,
      24.6,        84,
      24.7,        88,
      24.8,        97,
      24.9,        78,
        25,        89,
      25.1,        69,
      25.2,        75,
      25.3,        92,
      25.4,        89,
      25.5,        98,
      25.6,        74,
      25.7,        66,
      25.8,        83,
      25.9,        73,
        26,        78,
      26.1,       120,
      26.2,       129,
      26.3,       123,
      26.4,        94,
      26.5,        98,
      26.6,        83,
      26.7,        71,
      26.8,        85,
      26.9,        82,
        27,        93,
      27.1,        92,
      27.2,        97,
      27.3,        86,
      27.4,        92,
      27.5,        79,
      27.6,       105,
      27.7,        87,
      27.8,        95,
      27.9,       112,
        28,       108,
      28.1,        94,
      28.2,       122,
      28.3,       119,
      28.4,       122,
      28.5,       135,
      28.6,       171,
      28.7,       226,
      28.8,       691,
      28.9,      2114,
        29,      2810,
      29.1,      1906,
      29.2,      1106,
      29.3,       426,
      29.4,       188,
      29.5,       121,
      29.6,       104,
      29.7,       132,
      29.8,       111,
      29.9,       115,
        30,       103,
      30.1,        96,
      30.2,        96,
      30.3,        97,
      30.4,        98,
      30.5,       107,
      30.6,        91,
      30.7,        90,
      30.8,       106,
      30.9,        91,
        31,        99,
      31.1,        93,
      31.2,        95,
      31.3,       100,
      31.4,        91,
      31.5,        97,
      31.6,       111,
      31.7,        72,
      31.8,        88,
      31.9,        91,
        32,        99,
      32.1,        83,
      32.2,        85,
      32.3,        76,
      32.4,        82,
      32.5,        89,
      32.6,        90,
      32.7,        86,
      32.8,        84,
      32.9,        68,
        33,        77,
      33.1,        99,
      33.2,        84,
      33.3,        79,
      33.4,        81,
      33.5,        67,
      33.6,        92,
      33.7,        87,
      33.8,        74,
      33.9,        67,
        34,        73,
      34.1,        90,
      34.2,        91,
      34.3,        89,
      34.4,        98,
      34.5,        81,
      34.6,        78,
      34.7,        92,
      34.8,        70,
      34.9,        90,
        35,        84,
      35.1,        88,
      35.2,        58,
      35.3,        61,
      35.4,        79,
      35.5,        71,
      35.6,        67,
      35.7,        64,
      35.8,        68,
      35.9,        65,
        36,        64,
      36.1,        68,
      36.2,        75,
      36.3,        80,
      36.4,        61,
      36.5,        80,
      36.6,        80,
      36.7,        51,
      36.8,        65,
      36.9,        66,
        37,        58,
      37.1,        78,
      37.2,        76,
      37.3,        56,
      37.4,        67,
      37.5,        65,
      37.6,        48,
      37.7,        48,
      37.8,        69,
      37.9,        77,
        38,        61,
      38.1,        66,
      38.2,        76,
      38.3,        60,
      38.4,        67,
      38.5,        72,
      38.6,        69,
      38.7,        63,
      38.8,        67,
      38.9,        52,
        39,        55,
      39.1,        69,
      39.2,        65,
      39.3,        70,
      39.4,        48,
      39.5,        60,
      39.6,        68,
      39.7,        64,
      39.8,        66,
      39.9,        77,
        40,        59,
      40.1,        67,
      40.2,        61,
      40.3,        49,
      40.4,        72,
      40.5,        55,
      40.6,        49,
      40.7,        60,
      40.8,        68,
      40.9,        58,
        41,        44,
      41.1,        68,
      41.2,        56,
      41.3,        56,
      41.4,        71,
      41.5,        50,
      41.6,        68,
      41.7,        57,
      41.8,        69,
      41.9,        61,
        42,        71,
      42.1,        60,
      42.2,        54,
      42.3,        50,
      42.4,        63,
      42.5,        64,
      42.6,        61,
      42.7,        64,
      42.8,        58,
      42.9,        54,
        43,        93,
      43.1,        97,
      43.2,        63,
      43.3,        68,
      43.4,        63,
      43.5,        57,
      43.6,        68,
      43.7,        50,
      43.8,        56,
      43.9,        62,
        44,        58,
      44.1,        75,
      44.2,        61,
      44.3,        53,
      44.4,        46,
      44.5,        47,
      44.6,        53,
      44.7,        52,
      44.8,        53,
      44.9,        54,
        45,        55,
      45.1,        64,
      45.2,        54,
      45.3,        59,
      45.4,        60,
      45.5,        59,
      45.6,        48,
      45.7,        56,
      45.8,        53,
      45.9,        74,
        46,        57,
      46.1,        75,
      46.2,        65,
      46.3,        56,
      46.4,        50,
      46.5,        63,
      46.6,        62,
      46.7,        62,
      46.8,        54,
      46.9,        50,
        47,        79,
      47.1,        62,
      47.2,        63,
      47.3,        83,
      47.4,        88,
      47.5,       116,
      47.6,       241,
      47.7,       758,
      47.8,      2657,
      47.9,      1822,
        48,      1033,
      48.1,       485,
      48.2,       201,
      48.3,       102,
      48.4,        89,
      48.5,        76,
      48.6,        71,
      48.7,        71,
      48.8,        71,
      48.9,        64,
        49,        58,
      49.1,        68,
      49.2,        77,
      49.3,        67,
      49.4,        55,
      49.5,        57,
      49.6,        74,
      49.7,        57,
      49.8,        56,
      49.9,        64,
        50,        46,
      50.1,        42,
      50.2,        55,
      50.3,        47,
      50.4,        46,
      50.5,        60,
      50.6,        49,
      50.7,        74,
      50.8,        68,
      50.9,        63,
        51,        59,
      51.1,        61,
      51.2,        56,
      51.3,        46,
      51.4,        34,
      51.5,        54,
      51.6,        36,
      51.7,        54,
      51.8,        57,
      51.9,        45,
        52,        51,
      52.1,        53,
      52.2,        57,
      52.3,        68,
      52.4,        51,
      52.5,        45,
      52.6,        49,
      52.7,        49,
      52.8,        40,
      52.9,        38,
        53,        48,
      53.1,        43,
      53.2,        51,
      53.3,        56,
      53.4,        48,
      53.5,        45,
      53.6,        36,
      53.7,        58,
      53.8,        54,
      53.9,        51,
        54,        43,
      54.1,        37,
      54.2,        54,
      54.3,        48,
      54.4,        52,
      54.5,        45,
      54.6,        57,
      54.7,        59,
      54.8,        53,
      54.9,        41,
        55,        42,
      55.1,        47,
      55.2,        50,
      55.3,        48,
      55.4,        62,
      55.5,        42,
      55.6,        34,
      55.7,        42,
      55.8,        58,
      55.9,        52,
        56,        53,
      56.1,        65,
      56.2,        63,
      56.3,        80,
      56.4,       152,
      56.5,       411,
      56.6,       794,
      56.7,       824,
      56.8,       843,
      56.9,       444,
        57,       223,
      57.1,        84,
      57.2,        80,
      57.3,        44,
      57.4,        60,
      57.5,        39,
      57.6,        57,
      57.7,        46,
      57.8,        49,
      57.9,        57,
        58,        57,
      58.1,        46,
      58.2,        54,
      58.3,        51,
      58.4,        38,
      58.5,        33,
      58.6,        38,
      58.7,        45,
      58.8,        42,
      58.9,        43,
        59,        41,
      59.1,        40,
      59.2,        38,
      59.3,        54,
      59.4,        44,
      59.5,        42,
      59.6,        42,
      59.7,        47,
      59.8,        52,
      59.9,        45,
        60,        35,
      60.1,        43,
      60.2,        50,
      60.3,        47,
      60.4,        51,
      60.5,        33,
      60.6,        44,
      60.7,        30,
      60.8,        39,
      60.9,        42,
        61,        37,
      61.1,        35,
      61.2,        46,
      61.3,        55,
      61.4,        32,
      61.5,        47,
      61.6,        52,
      61.7,        36,
      61.8,        31,
      61.9,        44,
        62,        41,
      62.1,        47,
      62.2,        43,
      62.3,        40,
      62.4,        42,
      62.5,        37,
      62.6,        37,
      62.7,        33,
      62.8,        31,
      62.9,        41,
        63,        40,
      63.1,        44,
      63.2,        35,
      63.3,        50,
      63.4,        34,
      63.5,        39,
      63.6,        44,
      63.7,        24,
      63.8,        31,
      63.9,        31,
        64,        34,
      64.1,        44,
      64.2,        38,
      64.3,        36,
      64.4,        39,
      64.5,        36,
      64.6,        38,
      64.7,        39,
      64.8,        37,
      64.9,        45,
        65,        32,
      65.1,        33,
      65.2,        34,
      65.3,        43,
      65.4,        42,
      65.5,        40,
      65.6,        35,
      65.7,        34,
      65.8,        41,
      65.9,        40,
        66,        39,
      66.1,        32,
      66.2,        33,
      66.3,        29,
      66.4,        33,
      66.5,        32,
      66.6,        38,
      66.7,        30,
      66.8,        31,
      66.9,        41,
        67,        36,
      67.1,        39,
      67.2,        54,
      67.3,        43,
      67.4,        42,
      67.5,        45,
      67.6,        42,
      67.7,        44,
      67.8,        35,
      67.9,        44,
        68,        40,
      68.1,        37,
      68.2,        34,
      68.3,        50,
      68.4,        42,
      68.5,        40,
      68.6,        34,
      68.7,        39,
      68.8,        36,
      68.9,        48,
        69,        48,
      69.1,        33,
      69.2,        46,
      69.3,        52,
      69.4,       119,
      69.5,       270,
      69.6,       278,
      69.7,       213,
      69.8,       175,
      69.9,       100,
        70,        49,
      70.1,        37,
      70.2,        44,
      70.3,        39,
      70.4,        32,
      70.5,        36,
      70.6,        40,
      70.7,        33,
      70.8,        45,
      70.9,        37,
        71,        46,
      71.1,        37,
      71.2,        45,
      71.3,        43,
      71.4,        32,
      71.5,        36,
      71.6,        39,
      71.7,        39,
      71.8,        40,
      71.9,        37,
        72,        43,
      72.1,        40,
      72.2,        34,
      72.3,        38,
      72.4,        23,
      72.5,        37,
      72.6,        45,
      72.7,        37,
      72.8,        43,
      72.9,        32,
        73,        33,
      73.1,        34,
      73.2,        25,
      73.3,        45,
      73.4,        38,
      73.5,        32,
      73.6,        35,
      73.7,        49,
      73.8,        55,
      73.9,        38,
        74,        53,
      74.1,        31,
      74.2,        38,
      74.3,        45,
      74.4,        38,
      74.5,        50,
      74.6,        53,
      74.7,        40,
      74.8,        36,
      74.9,        36,
        75,        43,
      75.1,        34,
      75.2,        32,
      75.3,        29,
      75.4,        44,
      75.5,        41,
      75.6,        39,
      75.7,        34,
      75.8,        36,
      75.9,        54,
        76,        37,
      76.1,        32,
      76.2,        42,
      76.3,        51,
      76.4,        45,
      76.5,        49,
      76.6,        84,
      76.7,       184,
      76.8,       373,
      76.9,       334,
        77,       297,
      77.1,       214,
      77.2,       119,
      77.3,        64,
      77.4,        49,
      77.5,        45,
      77.6,        45,
      77.7,        60,
      77.8,        59,
      77.9,        42,
        78,        42,
      78.1,        51,
      78.2,        52,
      78.3,        46,
      78.4,        54,
      78.5,        42,
      78.6,        49,
      78.7,        37,
      78.8,        35,
      78.9,        29,
        79,        32,
      79.1,        33,
      79.2,        40,
      79.3,        34,
      79.4,        34,
      79.5,        32,
      79.6,        35,
      79.7,        46,
      79.8,        40,
      79.9,        41,
        80,        45,
      80.1,        49,
      80.2,        40,
      80.3,        36,
      80.4,        33,
      80.5,        38,
      80.6,        27,
      80.7,        42,
      80.8,        34,
      80.9,        38,
        81,        43,
      81.1,        48,
      81.2,        43,
      81.3,        50,
      81.4,        41,
      81.5,        42,
      81.6,        46,
      81.7,        42,
      81.8,        46,
      81.9,        42,
        82,        30,
      82.1,        31,
      82.2,        36,
      82.3,        33,
      82.4,        53,
      82.5,        30,
      82.6,        24,
      82.7,        31,
      82.8,        42,
      82.9,        32,
        83,        35,
      83.1,        37,
      83.2,        36,
      83.3,        39,
      83.4,        28,
      83.5,        39,
      83.6,        39,
      83.7,        36,
      83.8,        47,
      83.9,        48,
        84,        35,
      84.1,        42,
      84.2,        34,
      84.3,        33,
      84.4,        37,
      84.5,        30,
      84.6,        37,
      84.7,        32,
      84.8,        52,
      84.9,        50,
        85,        38,
      85.1,        32,
      85.2,        44,
      85.3,        45,
      85.4,        37,
      85.5,        48,
      85.6,        42,
      85.7,        36,
      85.8,        41,
      85.9,        47,
        86,        34,
      86.1,        54,
      86.2,        35,
      86.3,        45,
      86.4,        36,
      86.5,        35,
      86.6,        39,
      86.7,        36,
      86.8,        34,
      86.9,        40,
        87,        40,
      87.1,        33,
      87.2,        42,
      87.3,        47,
      87.4,        29,
      87.5,        47,
      87.6,        44,
      87.7,        53,
      87.8,        52,
      87.9,        50,
        88,        53,
      88.1,        65,
      88.2,       104,
      88.3,       305,
      88.4,       535,
      88.5,       617,
      88.6,       464,
      88.7,       326,
      88.8,       314,
      88.9,       154,
        89,        82,
      89.1,        52,
      89.2,        47,
      89.3,        43,
      89.4,        32,
      89.5,        34,
      89.6,        44,
      89.7,        49,
      89.8,        41,
      89.9,        43,
        90,        45,
      90.1,        40,
      90.2,        41,
      90.3,        40,
      90.4,        38,
      90.5,        50,
      90.6,        36,
      90.7,        43,
      90.8,        55,
      90.9,        34,
        91,        43,
      91.1,        40,
      91.2,        49,
      91.3,        40,
      91.4,        43,
      91.5,        51,
      91.6,        31,
      91.7,        32,
      91.8,        36,
      91.9,        40,
        92,        37,
      92.1,        46,
      92.2,        37,
      92.3,        44,
      92.4,        40,
      92.5,        42,
      92.6,        32,
      92.7,        41,
      92.8,        43,
      92.9,        50,
        93,        38,
      93.1,        44,
      93.2,        43,
      93.3,        44,
      93.4,        55,
      93.5,        44,
      93.6,        46,
      93.7,        37,
      93.8,        34,
      93.9,        44,
        94,        48,
      94.1,        36,
      94.2,        41,
      94.3,        36,
      94.4,        46,
      94.5,        49,
      94.6,        43,
      94.7,        52,
      94.8,        55,
      94.9,        53,
        95,        37,
      95.1,        94,
      95.2,       229,
      95.3,       248,
      95.4,       257,
      95.5,       189,
      95.6,       197,
      95.7,       163,
      95.8,       117,
      95.9,        57,
        96,        65,
      96.1,        47,
      96.2,        40,
      96.3,        37,
      96.4,        50,
      96.5,        39,
      96.6,        40,
      96.7,        44,
      96.8,        31,
      96.9,        35,
        97,        37,
      97.1,        34,
      97.2,        39,
      97.3,        45,
      97.4,        41,
      97.5,        40,
      97.6,        51,
      97.7,        39,
      97.8,        43,
      97.9,        37,
        98,        38,
      98.1,        44,
      98.2,        35,
      98.3,        36,
      98.4,        45,
      98.5,        48,
      98.6,        40,
      98.7,        45,
      98.8,        50,
      98.9,        37,
        99,        46,
      99.1,        42,
      99.2,        41,
      99.3,        51,
      99.4,        43,
      99.5,        45,
      99.6,        44,
      99.7,        47,
      99.8,        46,
      99.9,        52,
       100,        37,
