        10,      1494,
     10.05,      1427,
      10.1,      1413,
     10.15,      1489,
      10.2,      1415,
     10.25,      1471,
      10.3,      1452,
     10.35,      1465,
      10.4,      1399,
     10.45,      1435,
      10.5,      1494,
     10.55,      1502,
      10.6,      1476,
     10.65,      1388,
      10.7,      1420,
     10.75,      1410,
      10.8,      1355,
     10.85,      1353,
      10.9,      1405,
     10.95,      1395,
        11,      1286,
     11.05,      1383,
      11.1,      1392,
     11.15,      1376,
      11.2,      1332,
     11.25,      1314,
      11.3,      1453,
     11.35,      1576,
      11.4,      1624,
     11.45,      1663,
      11.5,      1715,
     11.55,      2079,
      11.6,      2429,
     11.65,      3119,
      11.7,      2880,
     11.75,      1880,
      11.8,      1451,
     11.85,      1453,
      11.9,      1409,
     11.95,      1415,
        12,      1430,
     12.05,      1379,
      12.1,      1345,
     12.15,      1313,
      12.2,      1426,
     12.25,      1284,
      12.3,      1357,
     12.35,      1398,
      12.4,      1366,
     12.45,      1412,
      12.5,      1469,
     12.55,      1555,
      12.6,      1771,
     12.65,      2713,
      12.7,      2991,
     12.75,      2136,
      12.8,      1790,
     12.85,      1653,
      12.9,      1947,
     12.95,      3060,
        13,      3067,
     13.05,      2968,
      13.1,      4162,
     13.15,      4262,
      13.2,      1830,
     13.25,      1353,
      13.3,      1321,
     13.35,      1378,
      13.4,      1262,
     13.45,      1325,
      13.5,      1286,
     13.55,      1318,
      13.6,      1185,
     13.65,      1231,
      13.7,      1245,
     13.75,      1254,
      13.8,      1271,
     13.85,      1264,
      13.9,      1313,
     13.95,      1215,
        14,      1216,
     14.05,      1227,
      14.1,      1170,
     14.15,      1220,
      14.2,      1159,
     14.25,      1277,
      14.3,      1191,
     14.35,      1181,
      14.4,      1182,
     14.45,      1197,
      14.5,      1191,
     14.55,      1192,
      14.6,      1233,
     14.65,      1169,
      14.7,      1212,
     14.75,      1140,
      14.8,      1162,
     14.85,      1194,
      14.9,      1275,
     14.95,      1444,
        15,      1584,
     15.05,      1553,
      15.1,      1457,
     15.15,      1564,
      15.2,      1702,
     15.25,      1526,
      15.3,      1517,
     15.35,      1507,
      15.4,      1932,
     15.45,      1746,
      15.5,      1509,
     15.55,      1369,
      15.6,      1236,
     15.65,      1252,
      15.7,      1274,
     15.75,      1252,
      15.8,      1268,
     15.85,      1254,
      15.9,      1293,
     15.95,      1263,
        16,      1205,
     16.05,      1384,
      16.1,      1489,
     16.15,      1488,
      16.2,      1489,
     16.25,      1407,
      16.3,      1596,
     16.35,      1583,
      16.4,      1419,
     16.45,      1812,
      16.5,      3809,
     16.55,      5999,
      16.6,     10487,
     16.65,     15213,
      16.7,     11549,
     16.75,      4339,
      16.8,      1715,
     16.85,      1579,
      16.9,      1638,
     16.95,      1440,
        17,      1330,
     17.05,      1270,
      17.1,      1268,
     17.15,      1238,
      17.2,      1316,
     17.25,      1357,
      17.3,      1331,
     17.35,      1268,
      17.4,      1298,
     17.45,      1283,
      17.5,      1336,
     17.55,      1231,
      17.6,      1214,
     17.65,      1307,
      17.7,      1306,
     17.75,      1319,
      17.8,      1289,
     17.85,      1338,
      17.9,      1318,
     17.95,      1312,
        18,      1347,
     18.05,      1285,
      18.1,      1522,
     18.15,      1730,
      18.2,      1523,
     18.25,      1291,
      18.3,      1255,
     18.35,      1256,
      18.4,      1367,
     18.45,      1406,
      18.5,      1616,
     18.55,      2099,
      18.6,      2250,
     18.65,      2355,
      18.7,      2315,
     18.75,      1934,
      18.8,      1899,
     18.85,      1935,
      18.9,      1555,
     18.95,      1283,
        19,      1227,
     19.05,      1273,
      19.1,      1536,
     19.15,      2622,
      19.2,      4097,
     19.25,      3445,
      19.3,      2225,
     19.35,      2037,
      19.4,      2566,
     19.45,      2158,
      19.5,      1911,
     19.55,      1907,
      19.6,      1776,
     19.65,      1463,
      19.7,      1196,
     19.75,      1135,
      19.8,      1077,
     19.85,      1137,
      19.9,      1137,
     19.95,      1107,
        20,      1168,
     20.05,      1157,
      20.1,      1206,
     20.15,      1327,
      20.2,      1271,
     20.25,      1315,
      20.3,      1792,
     20.35,      2029,
      20.4,      1522,
     20.45,      1202,
      20.5,      1274,
     20.55,      1276,
      20.6,      1276,
     20.65,      1226,
      20.7,      1272,
     20.75,      1364,
      20.8,      1623,
     20.85,      1388,
      20.9,      1130,
     20.95,      1022,
        21,       980,
     21.05,      1035,
      21.1,       994,
     21.15,      1020,
      21.2,      1002,
     21.25,       925,
      21.3,       974,
     21.35,      1023,
      21.4,       969,
     21.45,       975,
      21.5,      1014,
     21.55,       953,
      21.6,      1032,
     21.65,      1084,
      21.7,      1126,
     21.75,      1217,
      21.8,      1194,
     21.85,      1315,
      21.9,      1351,
     21.95,      1687,
        22,      5229,
     22.05,      7059,
      22.1,      3850,
     22.15,      1334,
      22.2,      1048,
     22.25,       987,
      22.3,      1117,
     22.35,       980,
      22.4,       950,
     22.45,       985,
      22.5,      1035,
     22.55,      1039,
      22.6,       928,
     22.65,       867,
      22.7,       940,
     22.75,       904,
      22.8,       833,
     22.85,       824,
      22.9,       772,
     22.95,       858,
        23,       851,
     23.05,       852,
      23.1,       885,
     23.15,       844,
      23.2,       875,
     23.25,       869,
      23.3,       894,
     23.35,       916,
      23.4,       869,
     23.45,       880,
      23.5,       920,
     23.55,       916,
      23.6,       784,
     23.65,       812,
      23.7,       798,
     23.75,       718,
      23.8,       836,
     23.85,       833,
      23.9,       795,
     23.95,       814,
        24,       862,
     24.05,       987,
      24.1,      1011,
     24.15,       992,
      24.2,      1008,
     24.25,      1020,
      24.3,      1066,
     24.35,      1220,
      24.4,      1543,
     24.45,      2116,
      24.5,      6974,
     24.55,      9635,
      24.6,      6083,
     24.65,      3054,
      24.7,      3357,
     24.75,      3493,
      24.8,      2939,
     24.85,      2089,
      24.9,      1527,
     24.95,      1568,
        25,      1509,
     25.05,      1413,
      25.1,      2958,
     25.15,      8814,
      25.2,      9943,
     25.25,      5433,
      25.3,      2040,
     25.35,      1304,
      25.4,      1084,
     25.45,       834,
      25.5,       754,
     25.55,       746,
      25.6,       726,
     25.65,       685,
      25.7,       680,
     25.75,       668,
      25.8,       662,
     25.85,       673,
      25.9,       709,
     25.95,       630,
        26,       624,
     26.05,       645,
      26.1,       582,
     26.15,       760,
      26.2,       835,
     26.25,       859,
      26.3,       876,
     26.35,      1003,
      26.4,      1053,
     26.45,       860,
      26.5,       726,
     26.55,       630,
      26.6,       613,
     26.65,       599,
      26.7,       603,
     26.75,       595,
      26.8,       596,
     26.85,       588,
      26.9,       580,
     26.95,       623,
        27,       620,
     27.05,       586,
      27.1,       599,
     27.15,       621,
      27.2,       623,
     27.25,       620,
      27.3,       589,
     27.35,       610,
      27.4,       558,
     27.45,       588,
      27.5,       607,
     27.55,       543,
      27.6,       572,
     27.65,       568,
      27.7,       508,
     27.75,       501,
      27.8,       503,
     27.85,       473,
      27.9,       494,
     27.95,       462,
        28,       490,
     28.05,       465,
      28.1,       478,
     28.15,       463,
      28.2,       461,
     28.25,       490,
      28.3,       525,
     28.35,       528,
      28.4,       491,
     28.45,       484,
      28.5,       462,
     28.55,       520,
      28.6,       813,
     28.65,       836,
      28.7,       712,
     28.75,       511,
      28.8,       434,
     28.85,       449,
      28.9,       427,
     28.95,       410,
        29,       412,
     29.05,       455,
      29.1,       463,
     29.15,       444,
      29.2,       409,
     29.25,       435,
      29.3,       419,
     29.35,       438,
      29.4,       401,
     29.45,       413,
      29.5,       442,
     29.55,       439,
      29.6,       409,
     29.65,       407,
      29.7,       429,
     29.75,       467,
      29.8,       428,
     29.85,       460,
      29.9,       483,
     29.95,       436,
        30,       460,
