        10,      1505,
      10.1,      1516,
      10.2,      1488,
      10.3,      1477,
      10.4,      1501,
      10.5,      1519,
      10.6,      1505,
      10.7,      1457,
      10.8,      1454,
      10.9,      1407,
        11,      1392,
      11.1,      1398,
      11.2,      1413,
      11.3,      1380,
      11.4,      1558,
      11.5,      1777,
      11.6,      2241,
      11.7,      2999,
      11.8,      1686,
      11.9,      1385,
        12,      1377,
      12.1,      1382,
      12.2,      1387,
      12.3,      1399,
      12.4,      1335,
      12.5,      1539,
      12.6,      2310,
      12.7,      5257,
      12.8,      2095,
      12.9,      2452,
        13,      3336,
      13.1,      4303,
      13.2,      3426,
      13.3,      1635,
      13.4,      1554,
      13.5,      1350,
      13.6,      1351,
      13.7,      1264,
      13.8,      1319,
      13.9,      1273,
        14,      1169,
      14.1,      1186,
      14.2,      1228,
      14.3,      1200,
      14.4,      1198,
      14.5,      1185,
      14.6,      1175,
      14.7,      1200,
      14.8,      1163,
      14.9,      1248,
        15,      1317,
      15.1,      1445,
      15.2,      1640,
      15.3,      1509,
      15.4,      2121,
      15.5,      2865,
      15.6,      1532,
      15.7,      1328,
      15.8,      1321,
      15.9,      1317,
        16,      1368,
      16.1,      1416,
      16.2,      1610,
      16.3,      1566,
      16.4,      1640,
      16.5,      4421,
      16.6,     11070,
      16.7,     13445,
      16.8,      3355,
      16.9,      1416,
        17,      1328,
      17.1,      1347,
      17.2,      1327,
      17.3,      1384,
      17.4,      1361,
      17.5,      1322,
      17.6,      1244,
      17.7,      1341,
      17.8,      1207,
      17.9,      1314,
        18,      1323,
      18.1,      1295,
      18.2,      1452,
      18.3,      1398,
      18.4,      1343,
      18.5,      1782,
      18.6,      3311,
      18.7,      3310,
      18.8,      5061,
      18.9,      8184,
        19,      1428,
      19.1,      1782,
      19.2,      4135,
      19.3,      2417,
      19.4,      2427,
      19.5,      2258,
      19.6,      1925,
      19.7,      1330,
      19.8,      1215,
      19.9,      1213,
        20,      1245,
      20.1,      1258,
      20.2,      1303,
      20.3,      1296,
      20.4,      1315,
      20.5,      1243,
      20.6,      1314,
      20.7,      1252,
      20.8,      1302,
      20.9,      1102,
        21,       976,
      21.1,       976,
      21.2,      1011,
      21.3,       999,
      21.4,      1006,
      21.5,       978,
      21.6,      1019,
      21.7,      1173,
      21.8,      1363,
      21.9,      1380,
        22,      3942,
      22.1,      3908,
      22.2,      1092,
      22.3,      1231,
      22.4,      1116,
      22.5,      1143,
      22.6,       991,
      22.7,       979,
      22.8,       842,
      22.9,       897,
        23,       846,
      23.1,       916,
      23.2,       913,
      23.3,       991,
      23.4,       950,
      23.5,       932,
      23.6,       766,
      23.7,       826,
      23.8,       813,
      23.9,       822,
        24,       888,
      24.1,       905,
      24.2,      1018,
      24.3,      1050,
      24.4,      1446,
      24.5,      6627,
      24.6,      6410,
      24.7,      2218,
      24.8,      2248,
      24.9,      2686,
        25,      5502,
      25.1,      2571,
      25.2,      3994,
      25.3,      1469,
      25.4,       758,
      25.5,       751,
      25.6,       729,
      25.7,       669,
      25.8,      1208,
      25.9,       809,
        26,       637,
      26.1,       648,
      26.2,      1155,
      26.3,      1415,
      26.4,       952,
      26.5,       890,
      26.6,       936,
      26.7,       811,
      26.8,       601,
      26.9,       620,
        27,       598,
      27.1,       642,
      27.2,       719,
      27.3,       673,
      27.4,       621,
      27.5,       596,
      27.6,       669,
      27.7,       528,
      27.8,       458,
      27.9,       483,
        28,       433,
      28.1,       471,
      28.2,       455,
      28.3,       509,
      28.4,       542,
      28.5,       510,
      28.6,       649,
      28.7,       516,
      28.8,       431,
      28.9,       395,
        29,       440,
      29.1,       413,
      29.2,       415,
      29.3,       420,
      29.4,       416,
      29.5,       456,
      29.6,       469,
      29.7,       418,
      29.8,       375,
      29.9,       414,
        30,       426,
      30.1,       452,
      30.2,       475,
      30.3,       577,
      30.4,       606,
      30.5,       849,
      30.6,      1014,
      30.7,       768,
      30.8,       707,
      30.9,       698,
        31,       569,
      31.1,       476,
      31.2,       419,
      31.3,       444,
      31.4,       447,
      31.5,       465,
      31.6,       554,
      31.7,      1468,
      31.8,      2045,
      31.9,      1435,
        32,       751,
      32.1,       659,
      32.2,       634,
      32.3,       587,
      32.4,       524,
      32.5,       517,
      32.6,       529,
      32.7,       443,
      32.8,       499,
      32.9,       489,
        33,       400,
      33.1,       472,
      33.2,       520,
      33.3,       518,
      33.4,       560,
      33.5,      1225,
      33.6,       766,
      33.7,       411,
      33.8,       404,
      33.9,       352,
        34,       342,
      34.1,       325,
      34.2,       391,
      34.3,       382,
      34.4,       414,
      34.5,       387,
      34.6,       512,
      34.7,       532,
      34.8,      1266,
      34.9,       861,
        35,       478,
      35.1,       844,
      35.2,       735,
      35.3,       532,
      35.4,       578,
      35.5,       601,
      35.6,       721,
      35.7,       693,
      35.8,       908,
      35.9,       844,
        36,       981,
      36.1,       783,
      36.2,       844,
      36.3,       588,
      36.4,       388,
      36.5,       422,
      36.6,       440,
      36.7,       462,
      36.8,       439,
      36.9,       371,
        37,       424,
      37.1,       407,
      37.2,       518,
      37.3,       583,
      37.4,       423,
      37.5,       345,
      37.6,       352,
      37.7,       339,
      37.8,       358,
      37.9,       407,
        38,       540,
      38.1,       809,
      38.2,       756,
      38.3,       613,
      38.4,      1282,
      38.5,      1364,
      38.6,       742,
      38.7,       460,
      38.8,       580,
      38.9,       576,
        39,       504,
      39.1,       415,
      39.2,       414,
      39.3,       392,
      39.4,       384,
      39.5,       461,
      39.6,       685,
      39.7,       674,
      39.8,       564,
      39.9,      1251,
        40,      1865,
      40.1,      2015,
      40.2,      1559,
      40.3,      1393,
      40.4,      1038,
      40.5,       584,
      40.6,       338,
      40.7,       365,
      40.8,       322,
      40.9,       355,
        41,       371,
      41.1,       354,
      41.2,       432,
      41.3,       513,
      41.4,       638,
      41.5,       541,
      41.6,       422,
      41.7,       336,
      41.8,       307,
      41.9,       300,
        42,       297,
      42.1,       281,
      42.2,       294,
      42.3,       302,
      42.4,       321,
      42.5,       295,
      42.6,       297,
      42.7,       309,
      42.8,       310,
      42.9,       271,
        43,       307,
      43.1,       330,
      43.2,       315,
      43.3,       352,
      43.4,       506,
      43.5,       702,
      43.6,       542,
      43.7,       382,
      43.8,       347,
      43.9,       359,
        44,       324,
      44.1,       291,
      44.2,       297,
      44.3,       267,
      44.4,       261,
      44.5,       276,
      44.6,       306,
      44.7,       281,
      44.8,       259,
      44.9,       269,
        45,       271,
      45.1,       270,
      45.2,       286,
      45.3,       296,
      45.4,       286,
      45.5,       261,
      45.6,       279,
      45.7,       283,
      45.8,       284,
      45.9,       284,
        46,       252,
      46.1,       324,
      46.2,       318,
      46.3,       370,
      46.4,       392,
      46.5,       372,
      46.6,       418,
      46.7,       418,
      46.8,       395,
      46.9,       493,
        47,       555,
      47.1,       442,
      47.2,       383,
      47.3,       391,
      47.4,       363,
      47.5,       344,
      47.6,       357,
      47.7,       353,
      47.8,       382,
      47.9,       384,
        48,       395,
      48.1,       354,
      48.2,       572,
      48.3,       531,
      48.4,       445,
      48.5,       343,
      48.6,       315,
      48.7,       277,
      48.8,       305,
      48.9,       338,
        49,       305,
      49.1,       296,
      49.2,       283,
      49.3,       270,
      49.4,       245,
      49.5,       259,
      49.6,       254,
      49.7,       242,
      49.8,       270,
      49.9,       264,
        50,       285,
      50.1,       291,
      50.2,       272,
      50.3,       276,
      50.4,       356,
      50.5,       282,
      50.6,       306,
      50.7,       287,
      50.8,       260,
      50.9,       222,
        51,       233,
      51.1,       234,
      51.2,       244,
      51.3,       285,
      51.4,       281,
      51.5,       277,
      51.6,       234,
      51.7,       238,
      51.8,       218,
      51.9,       248,
        52,       234,
      52.1,       238,
      52.2,       203,
      52.3,       255,
      52.4,       218,
      52.5,       268,
      52.6,       374,
      52.7,       363,
      52.8,       349,
      52.9,       248,
        53,       191,
      53.1,       232,
      53.2,       239,
      53.3,       210,
      53.4,       231,
      53.5,       253,
      53.6,       287,
      53.7,       557,
      53.8,       811,
      53.9,       701,
        54,       403,
      54.1,       382,
      54.2,       282,
      54.3,       257,
      54.4,       255,
      54.5,       254,
      54.6,       245,
      54.7,       208,
      54.8,       237,
      54.9,       212,
        55,       273,
      55.1,       252,
      55.2,       234,
      55.3,       256,
      55.4,       234,
      55.5,       228,
      55.6,       235,
      55.7,       252,
      55.8,       248,
      55.9,       247,
        56,       273,
      56.1,       257,
      56.2,       245,
      56.3,       206,
      56.4,       257,
      56.5,       402,
      56.6,       305,
      56.7,       290,
      56.8,       297,
      56.9,       676,
        57,       816,
      57.1,       568,
      57.2,       262,
      57.3,       204,
      57.4,       212,
      57.5,       206,
      57.6,       202,
      57.7,       202,
      57.8,       223,
      57.9,       248,
        58,       228,
      58.1,       233,
      58.2,       215,
      58.3,       237,
      58.4,       213,
      58.5,       213,
      58.6,       186,
      58.7,       193,
      58.8,       197,
      58.9,       196,
        59,       210,
      59.1,       184,
      59.2,       184,
      59.3,       198,
      59.4,       215,
      59.5,       205,
      59.6,       192,
      59.7,       172,
      59.8,       150,
      59.9,       156,
        60,       144,
      60.1,       186,
      60.2,       200,
      60.3,       226,
      60.4,       205,
      60.5,       200,
      60.6,       174,
      60.7,       194,
      60.8,       184,
      60.9,       193,
        61,       166,
      61.1,       181,
      61.2,       192,
      61.3,       312,
      61.4,       236,
      61.5,       238,
      61.6,       223,
      61.7,       201,
      61.8,       229,
      61.9,       275,
        62,       207,
      62.1,       228,
      62.2,       159,
      62.3,       179,
      62.4,       170,
      62.5,       187,
      62.6,       161,
      62.7,       188,
      62.8,       172,
      62.9,       214,
        63,       155,
      63.1,       184,
      63.2,       347,
      63.3,       471,
      63.4,       389,
      63.5,       283,
      63.6,       315,
      63.7,       200,
      63.8,       234,
      63.9,       213,
        64,       215,
      64.1,       181,
      64.2,       159,
      64.3,       195,
      64.4,       188,
      64.5,       200,
      64.6,       201,
      64.7,       192,
      64.8,       185,
      64.9,       181,
